Time,PPG,ECG,Resp
400,0.428152493,0.485221675,0.115621156
400.008,0.425219941,0.490147783,0.10701107
400.016,0.420332356,0.495073892,0.098400984
400.024,0.41544477,0.495073892,0.09102091
400.032,0.411534702,0.495073892,0.083640836
400.04,0.408602151,0.490147783,0.076260763
400.048,0.403714565,0.490147783,0.070110701
400.056,0.399804497,0.495073892,0.06396064
400.064,0.396871945,0.5,0.057810578
400.072,0.394916911,0.490147783,0.052890529
400.08,0.39198436,0.475369458,0.049200492
400.088,0.391006843,0.465517241,0.044280443
400.096,0.390029326,0.454433498,0.040590406
400.104,0.389051808,0.449507389,0.038130381
400.112,0.390029326,0.449507389,0.035670357
400.12,0.39198436,0.449507389,0.034440344
400.128,0.394916911,0.454433498,0.03198032
400.136,0.399804497,0.465517241,0.030750308
400.144,0.404692082,0.475369458,0.029520295
400.152,0.412512219,0.480295567,0.028290283
400.16,0.421309873,0.480295567,0.025830258
400.168,0.431085044,0.475369458,0.024600246
400.176,0.441837732,0.475369458,0.022140221
400.184,0.453567937,0.47044335,0.020910209
400.192,0.46627566,0.47044335,0.019680197
400.2,0.478005865,0.47044335,0.017220172
400.208,0.490713587,0.475369458,0.01599016
400.216,0.504398827,0.480295567,0.01599016
400.224,0.517106549,0.480295567,0.014760148
400.232,0.527859238,0.480295567,0.012300123
400.24,0.536656891,0.475369458,0.011070111
400.248,0.545454545,0.47044335,0.008610086
400.256,0.552297165,0.460591133,0.007380074
400.264,0.557184751,0.454433498,0.004920049
400.272,0.561094819,0.449507389,0.002460025
400.28,0.563049853,0.449507389,0
400.288,0.563049853,0.460591133,-0.001230012
400.296,0.561094819,0.475369458,-0.003690037
400.304,0.559139785,0.485221675,-0.004920049
400.312,0.556207234,0.490147783,-0.007380074
400.32,0.552297165,0.490147783,-0.008610086
400.328,0.54740958,0.480295567,-0.009840098
400.336,0.543499511,0.475369458,-0.011070111
400.344,0.539589443,0.47044335,-0.012300123
400.352,0.535679374,0.47044335,-0.012300123
400.36,0.531769306,0.475369458,-0.012300123
400.368,0.528836755,0.47044335,-0.013530135
400.376,0.524926686,0.47044335,-0.013530135
400.384,0.521994135,0.47044335,-0.013530135
400.392,0.518084066,0.460591133,-0.012300123
400.4,0.515151515,0.454433498,-0.011070111
400.408,0.511241447,0.449507389,-0.009840098
400.416,0.508308895,0.449507389,-0.008610086
400.424,0.506353861,0.444581281,-0.007380074
400.432,0.504398827,0.444581281,-0.006150062
400.44,0.501466276,0.454433498,-0.003690037
400.448,0.498533724,0.465517241,-0.002460025
400.456,0.494623656,0.475369458,0
400.464,0.490713587,0.485221675,0.001230012
400.472,0.486803519,0.490147783,0.002460025
400.48,0.482893451,0.480295567,0.003690037
400.488,0.478005865,0.475369458,0.004920049
400.496,0.474095797,0.47044335,0.006150062
400.504,0.470185728,0.490147783,0.007380074
400.512,0.46627566,0.61453202,0.007380074
400.52,0.463343109,0.795566502,0.008610086
400.528,0.461388074,0.854679803,0.011070111
400.536,0.460410557,0.764778325,0.012300123
400.544,0.45943304,0.650246305,0.013530135
400.552,0.457478006,0.584975369,0.014760148
400.56,0.455522972,0.534482759,0.01599016
400.568,0.453567937,0.465517241,0.017220172
400.576,0.451612903,0.405172414,0.018450185
400.584,0.447702835,0.369458128,0.019680197
400.592,0.444770283,0.359605911,0.020910209
400.6,0.441837732,0.36453202,0.020910209
400.608,0.438905181,0.369458128,0.022140221
400.616,0.436950147,0.380541872,0.023370234
400.624,0.434995112,0.390394089,0.024600246
400.632,0.433040078,0.390394089,0.025830258
400.64,0.432062561,0.390394089,0.027060271
400.648,0.430107527,0.395320197,0.028290283
400.656,0.428152493,0.400246305,0.029520295
400.664,0.426197458,0.400246305,0.029520295
400.672,0.424242424,0.400246305,0.030750308
400.68,0.42228739,0.405172414,0.03198032
400.688,0.419354839,0.410098522,0.033210332
400.696,0.417399804,0.415024631,0.034440344
400.704,0.41544477,0.415024631,0.035670357
400.712,0.413489736,0.424876847,0.036900369
400.72,0.411534702,0.429802956,0.038130381
400.728,0.409579668,0.439655172,0.039360394
400.736,0.407624633,0.454433498,0.040590406
400.744,0.406647116,0.465517241,0.040590406
400.752,0.404692082,0.485221675,0.041820418
400.76,0.403714565,0.509852217,0.043050431
400.768,0.401759531,0.524630542,0.044280443
400.776,0.400782014,0.52955665,0.045510455
400.784,0.398826979,0.534482759,0.046740467
400.792,0.396871945,0.519704433,0.04797048
400.8,0.395894428,0.514778325,0.04797048
400.808,0.393939394,0.504926108,0.049200492
400.816,0.393939394,0.495073892,0.049200492
400.824,0.393939394,0.485221675,0.050430504
400.832,0.393939394,0.475369458,0.050430504
400.84,0.394916911,0.460591133,0.050430504
400.848,0.394916911,0.449507389,0.050430504
400.856,0.394916911,0.434729064,0.050430504
400.864,0.392961877,0.419950739,0.050430504
400.872,0.39198436,0.405172414,0.050430504
400.88,0.390029326,0.390394089,0.050430504
400.888,0.390029326,0.380541872,0.050430504
400.896,0.389051808,0.380541872,0.050430504
400.904,0.389051808,0.38546798,0.050430504
400.912,0.389051808,0.390394089,0.050430504
400.92,0.389051808,0.395320197,0.050430504
400.928,0.389051808,0.400246305,0.050430504
400.936,0.390029326,0.38546798,0.051660517
400.944,0.390029326,0.369458128,0.051660517
400.952,0.391006843,0.354679803,0.052890529
400.96,0.391006843,0.344827586,0.052890529
400.968,0.391006843,0.334975369,0.054120541
400.976,0.391006843,0.320197044,0.055350554
400.984,0.391006843,0.305418719,0.056580566
400.992,0.39198436,0.295566502,0.057810578
401,0.392961877,0.274630542,0.05904059
401.008,0.394916911,0.259852217,0.061500615
401.016,0.399804497,0.254926108,0.062730627
401.024,0.406647116,0.240147783,0.06396064
401.032,0.414467253,0.235221675,0.066420664
401.04,0.423264907,0.225369458,0.070110701
401.048,0.434995112,0.225369458,0.072570726
401.056,0.449657869,0.230295567,0.076260763
401.064,0.465298143,0.300492611,0.0799508
401.072,0.479960899,0.475369458,0.082410824
401.08,0.495601173,0.63546798,0.084870849
401.088,0.51026393,0.650246305,0.087330873
401.096,0.523949169,0.504926108,0.089790898
401.104,0.536656891,0.415024631,0.09102091
401.112,0.548387097,0.380541872,0.092250923
401.12,0.560117302,0.334975369,0.093480935
401.128,0.569892473,0.269704433,0.093480935
401.136,0.57771261,0.230295567,0.093480935
401.144,0.583577713,0.210591133,0.093480935
401.152,0.588465298,0.194581281,0.092250923
401.16,0.590420332,0.189655172,0.092250923
401.168,0.591397849,0.174876847,0.09102091
401.176,0.590420332,0.165024631,0.089790898
401.184,0.589442815,0.150246305,0.089790898
401.192,0.587487781,0.13546798,0.088560886
401.2,0.585532747,0.130541872,0.088560886
401.208,0.583577713,0.130541872,0.087330873
401.216,0.581622678,0.145320197,0.087330873
401.224,0.579667644,0.155172414,0.086100861
401.232,0.57771261,0.169950739,0.086100861
401.24,0.574780059,0.174876847,0.086100861
401.248,0.571847507,0.179802956,0.087330873
401.256,0.566959922,0.184729064,0.087330873
401.264,0.562072336,0.189655172,0.088560886
401.272,0.558162268,0.199507389,0.09102091
401.28,0.554252199,0.210591133,0.092250923
401.288,0.550342131,0.22044335,0.094710947
401.296,0.546432063,0.245073892,0.098400984
401.304,0.541544477,0.254926108,0.100861009
401.312,0.537634409,0.259852217,0.104551046
401.32,0.532746823,0.269704433,0.108241082
401.328,0.529814272,0.259852217,0.111931119
401.336,0.52688172,0.25,0.114391144
401.344,0.523949169,0.230295567,0.118081181
401.352,0.521016618,0.210591133,0.121771218
401.36,0.518084066,0.189655172,0.125461255
401.368,0.515151515,0.189655172,0.127921279
401.376,0.512218964,0.194581281,0.131611316
401.384,0.509286413,0.204433498,0.134071341
401.392,0.506353861,0.199507389,0.137761378
401.4,0.50342131,0.194581281,0.140221402
401.408,0.499511241,0.194581281,0.143911439
401.416,0.495601173,0.199507389,0.146371464
401.424,0.491691105,0.199507389,0.148831488
401.432,0.488758553,0.199507389,0.150061501
401.44,0.484848485,0.194581281,0.152521525
401.448,0.481915934,0.184729064,0.153751538
401.456,0.478005865,0.179802956,0.15498155
401.464,0.475073314,0.165024631,0.15498155
401.472,0.472140762,0.150246305,0.15498155
401.48,0.470185728,0.145320197,0.156211562
401.488,0.468230694,0.13546798,0.156211562
401.496,0.46627566,0.125615764,0.156211562
401.504,0.464320626,0.11453202,0.156211562
401.512,0.462365591,0.109605911,0.157441574
401.52,0.461388074,0.109605911,0.157441574
401.528,0.460410557,0.119458128,0.157441574
401.536,0.460410557,0.130541872,0.157441574
401.544,0.460410557,0.130541872,0.158671587
401.552,0.460410557,0.13546798,0.158671587
401.56,0.460410557,0.13546798,0.158671587
401.568,0.461388074,0.130541872,0.159901599
401.576,0.462365591,0.119458128,0.161131611
401.584,0.464320626,0.165024631,0.162361624
401.592,0.46627566,0.320197044,0.164821648
401.6,0.469208211,0.480295567,0.167281673
401.608,0.474095797,0.514778325,0.17097171
401.616,0.479960899,0.424876847,0.174661747
401.624,0.487781036,0.349753695,0.178351784
401.632,0.494623656,0.300492611,0.18204182
401.64,0.502443793,0.225369458,0.185731857
401.648,0.511241447,0.13546798,0.189421894
401.656,0.519061584,0.070197044,0.191881919
401.664,0.52688172,0.045566502,0.194341943
401.672,0.532746823,0.034482759,0.196801968
401.68,0.537634409,0.034482759,0.200492005
401.688,0.541544477,0.050492611,0.20295203
401.696,0.544477028,0.060344828,0.206642066
401.704,0.546432063,0.065270936,0.210332103
401.712,0.54740958,0.065270936,0.212792128
401.72,0.546432063,0.060344828,0.216482165
401.728,0.545454545,0.060344828,0.218942189
401.736,0.543499511,0.060344828,0.222632226
401.744,0.541544477,0.065270936,0.225092251
401.752,0.538611926,0.065270936,0.227552276
401.76,0.536656891,0.075123153,0.2300123
401.768,0.53372434,0.080049261,0.232472325
401.776,0.531769306,0.080049261,0.234932349
401.784,0.529814272,0.084975369,0.237392374
401.792,0.527859238,0.089901478,0.241082411
401.8,0.525904203,0.094827586,0.243542435
401.808,0.522971652,0.099753695,0.247232472
401.816,0.519061584,0.11453202,0.249692497
401.824,0.516129032,0.140394089,0.253382534
401.832,0.513196481,0.169950739,0.257072571
401.84,0.51026393,0.194581281,0.260762608
401.848,0.507331378,0.215517241,0.265682657
401.856,0.50342131,0.225369458,0.269372694
401.864,0.499511241,0.215517241,0.273062731
401.872,0.495601173,0.199507389,0.27798278
401.88,0.492668622,0.184729064,0.281672817
401.888,0.491691105,0.174876847,0.286592866
401.896,0.490713587,0.165024631,0.290282903
401.904,0.490713587,0.160098522,0.29397294
401.912,0.488758553,0.160098522,0.297662977
401.92,0.486803519,0.160098522,0.300123001
401.928,0.484848485,0.155172414,0.303813038
401.936,0.482893451,0.150246305,0.306273063
401.944,0.479960899,0.150246305,0.3099631
401.952,0.476050831,0.145320197,0.312423124
401.96,0.474095797,0.13546798,0.313653137
401.968,0.47311828,0.130541872,0.314883149
401.976,0.472140762,0.130541872,0.316113161
401.984,0.472140762,0.145320197,0.316113161
401.992,0.472140762,0.160098522,0.316113161
402,0.471163245,0.179802956,0.316113161
402.008,0.470185728,0.194581281,0.314883149
402.016,0.470185728,0.199507389,0.314883149
402.024,0.469208211,0.204433498,0.313653137
402.032,0.468230694,0.210591133,0.312423124
402.04,0.468230694,0.215517241,0.311193112
402.048,0.469208211,0.225369458,0.308733087
402.056,0.469208211,0.230295567,0.307503075
402.064,0.469208211,0.235221675,0.30504305
402.072,0.469208211,0.240147783,0.303813038
402.08,0.470185728,0.240147783,0.301353014
402.088,0.472140762,0.240147783,0.300123001
402.096,0.474095797,0.240147783,0.297662977
402.104,0.477028348,0.240147783,0.296432964
402.112,0.481915934,0.235221675,0.295202952
402.12,0.487781036,0.235221675,0.29397294
402.128,0.495601173,0.240147783,0.29397294
402.136,0.50342131,0.25,0.292742927
402.144,0.513196481,0.269704433,0.291512915
402.152,0.523949169,0.289408867,0.290282903
402.16,0.53372434,0.300492611,0.289052891
402.168,0.543499511,0.310344828,0.287822878
402.176,0.553274682,0.310344828,0.285362854
402.184,0.561094819,0.315270936,0.284132841
402.192,0.567937439,0.320197044,0.281672817
402.2,0.573802542,0.325123153,0.280442804
402.208,0.578690127,0.325123153,0.27798278
402.216,0.581622678,0.334975369,0.275522755
402.224,0.583577713,0.339901478,0.271832718
402.232,0.582600196,0.344827586,0.268142681
402.24,0.581622678,0.344827586,0.265682657
402.248,0.580645161,0.344827586,0.260762608
402.256,0.580645161,0.339901478,0.257072571
402.264,0.579667644,0.339901478,0.252152522
402.272,0.578690127,0.339901478,0.247232472
402.28,0.576735093,0.339901478,0.241082411
402.288,0.574780059,0.354679803,0.236162362
402.296,0.571847507,0.375615764,0.231242312
402.304,0.567937439,0.390394089,0.226322263
402.312,0.562072336,0.439655172,0.220172202
402.32,0.556207234,0.589901478,0.21402214
402.328,0.550342131,0.764778325,0.206642066
402.336,0.544477028,0.810344828,0.200492005
402.344,0.538611926,0.72044335,0.194341943
402.352,0.53372434,0.624384236,0.188191882
402.36,0.529814272,0.575123153,0.183271833
402.368,0.524926686,0.524630542,0.178351784
402.376,0.521016618,0.449507389,0.172201722
402.384,0.517106549,0.395320197,0.164821648
402.392,0.513196481,0.36453202,0.157441574
402.4,0.509286413,0.359605911,0.151291513
402.408,0.505376344,0.354679803,0.142681427
402.416,0.501466276,0.344827586,0.135301353
402.424,0.497556207,0.339901478,0.127921279
402.432,0.493646139,0.339901478,0.120541205
402.44,0.48973607,0.344827586,0.113161132
402.448,0.485826002,0.359605911,0.10701107
402.456,0.480938416,0.369458128,0.100861009
402.464,0.477028348,0.380541872,0.095940959
402.472,0.474095797,0.390394089,0.089790898
402.48,0.472140762,0.400246305,0.083640836
402.488,0.470185728,0.410098522,0.077490775
402.496,0.468230694,0.424876847,0.071340713
402.504,0.465298143,0.439655172,0.066420664
402.512,0.462365591,0.449507389,0.061500615
402.52,0.458455523,0.454433498,0.057810578
402.528,0.456500489,0.47044335,0.054120541
402.536,0.454545455,0.480295567,0.049200492
402.544,0.45259042,0.490147783,0.045510455
402.552,0.449657869,0.5,0.041820418
402.56,0.446725318,0.509852217,0.038130381
402.568,0.443792766,0.509852217,0.034440344
402.576,0.439882698,0.509852217,0.029520295
402.584,0.436950147,0.5,0.025830258
402.592,0.432062561,0.5,0.022140221
402.6,0.428152493,0.495073892,0.018450185
402.608,0.426197458,0.495073892,0.014760148
402.616,0.423264907,0.495073892,0.011070111
402.624,0.421309873,0.495073892,0.008610086
402.632,0.419354839,0.495073892,0.004920049
402.64,0.418377322,0.495073892,0.001230012
402.648,0.416422287,0.495073892,-0.001230012
402.656,0.41544477,0.5,-0.004920049
402.664,0.413489736,0.504926108,-0.008610086
402.672,0.411534702,0.509852217,-0.011070111
402.68,0.410557185,0.509852217,-0.013530135
402.688,0.408602151,0.509852217,-0.01599016
402.696,0.407624633,0.504926108,-0.018450185
402.704,0.406647116,0.5,-0.020910209
402.712,0.406647116,0.495073892,-0.022140221
402.72,0.406647116,0.485221675,-0.024600246
402.728,0.406647116,0.475369458,-0.025830258
402.736,0.407624633,0.47044335,-0.025830258
402.744,0.407624633,0.460591133,-0.025830258
402.752,0.407624633,0.449507389,-0.025830258
402.76,0.405669599,0.444581281,-0.024600246
402.768,0.404692082,0.444581281,-0.023370234
402.776,0.403714565,0.444581281,-0.022140221
402.784,0.402737048,0.444581281,-0.019680197
402.792,0.403714565,0.444581281,-0.018450185
402.8,0.404692082,0.449507389,-0.01599016
402.808,0.407624633,0.454433498,-0.014760148
402.816,0.411534702,0.449507389,-0.012300123
402.824,0.417399804,0.449507389,-0.009840098
402.832,0.424242424,0.449507389,-0.007380074
402.84,0.432062561,0.444581281,-0.004920049
402.848,0.443792766,0.444581281,-0.002460025
402.856,0.455522972,0.434729064,-0.001230012
402.864,0.467253177,0.429802956,0.001230012
402.872,0.480938416,0.509852217,0.002460025
402.88,0.494623656,0.684729064,0.003690037
402.888,0.508308895,0.795566502,0.003690037
402.896,0.521016618,0.740147783,0.004920049
402.904,0.532746823,0.619458128,0.003690037
402.912,0.542521994,0.550492611,0.003690037
402.92,0.552297165,0.519704433,0.002460025
402.928,0.560117302,0.475369458,0.002460025
402.936,0.565982405,0.419950739,0.001230012
402.944,0.57086999,0.38546798,0.001230012
402.952,0.575757576,0.380541872,0
402.96,0.579667644,0.369458128,-0.001230012
402.968,0.582600196,0.369458128,-0.002460025
402.976,0.58455523,0.369458128,-0.003690037
402.984,0.586510264,0.369458128,-0.006150062
402.992,0.587487781,0.380541872,-0.007380074
403,0.587487781,0.38546798,-0.007380074
403.008,0.585532747,0.380541872,-0.008610086
403.016,0.582600196,0.375615764,-0.008610086
403.024,0.57771261,0.36453202,-0.007380074
403.032,0.572825024,0.359605911,-0.007380074
403.04,0.567937439,0.349753695,-0.006150062
403.048,0.563049853,0.349753695,-0.004920049
403.056,0.557184751,0.354679803,-0.003690037
403.064,0.551319648,0.36453202,-0.002460025
403.072,0.546432063,0.375615764,0
403.08,0.541544477,0.395320197,0.002460025
403.088,0.538611926,0.410098522,0.004920049
403.096,0.536656891,0.439655172,0.008610086
403.104,0.534701857,0.465517241,0.011070111
403.112,0.531769306,0.485221675,0.014760148
403.12,0.528836755,0.5,0.018450185
403.128,0.524926686,0.509852217,0.022140221
403.136,0.521994135,0.504926108,0.025830258
403.144,0.519061584,0.495073892,0.029520295
403.152,0.515151515,0.485221675,0.03198032
403.16,0.511241447,0.460591133,0.035670357
403.168,0.507331378,0.429802956,0.038130381
403.176,0.50342131,0.410098522,0.041820418
403.184,0.499511241,0.395320197,0.044280443
403.192,0.49657869,0.390394089,0.046740467
403.2,0.494623656,0.390394089,0.049200492
403.208,0.491691105,0.390394089,0.051660517
403.216,0.48973607,0.400246305,0.052890529
403.224,0.486803519,0.405172414,0.054120541
403.232,0.484848485,0.410098522,0.056580566
403.24,0.482893451,0.410098522,0.057810578
403.248,0.479960899,0.410098522,0.05904059
403.256,0.478005865,0.410098522,0.060270603
403.264,0.475073314,0.410098522,0.062730627
403.272,0.474095797,0.415024631,0.06396064
403.28,0.47311828,0.415024631,0.065190652
403.288,0.471163245,0.405172414,0.066420664
403.296,0.469208211,0.395320197,0.068880689
403.304,0.468230694,0.38546798,0.070110701
403.312,0.46627566,0.380541872,0.071340713
403.32,0.465298143,0.36453202,0.073800738
403.328,0.465298143,0.349753695,0.07503075
403.336,0.464320626,0.339901478,0.076260763
403.344,0.463343109,0.334975369,0.078720787
403.352,0.461388074,0.325123153,0.0799508
403.36,0.461388074,0.320197044,0.081180812
403.368,0.462365591,0.315270936,0.083640836
403.376,0.465298143,0.315270936,0.086100861
403.384,0.469208211,0.310344828,0.088560886
403.392,0.474095797,0.315270936,0.09102091
403.4,0.479960899,0.310344828,0.093480935
403.408,0.486803519,0.300492611,0.095940959
403.416,0.494623656,0.295566502,0.097170972
403.424,0.500488759,0.284482759,0.099630996
403.432,0.507331378,0.269704433,0.100861009
403.44,0.516129032,0.254926108,0.102091021
403.448,0.524926686,0.305418719,0.103321033
403.456,0.532746823,0.454433498,0.103321033
403.464,0.54056696,0.570197044,0.103321033
403.472,0.548387097,0.52955665,0.104551046
403.48,0.554252199,0.415024631,0.103321033
403.488,0.561094819,0.325123153,0.103321033
403.496,0.566959922,0.289408867,0.103321033
403.504,0.572825024,0.235221675,0.102091021
403.512,0.57771261,0.174876847,0.100861009
403.52,0.580645161,0.140394089,0.099630996
403.528,0.581622678,0.130541872,0.098400984
403.536,0.581622678,0.130541872,0.097170972
403.544,0.579667644,0.130541872,0.095940959
403.552,0.57771261,0.130541872,0.094710947
403.56,0.574780059,0.130541872,0.093480935
403.568,0.569892473,0.13546798,0.092250923
403.576,0.565004888,0.13546798,0.092250923
403.584,0.559139785,0.13546798,0.09102091
403.592,0.553274682,0.140394089,0.089790898
403.6,0.54740958,0.140394089,0.089790898
403.608,0.542521994,0.145320197,0.089790898
403.616,0.537634409,0.150246305,0.089790898
403.624,0.534701857,0.145320197,0.089790898
403.632,0.531769306,0.145320197,0.089790898
403.64,0.528836755,0.145320197,0.089790898
403.648,0.524926686,0.145320197,0.088560886
403.656,0.522971652,0.150246305,0.088560886
403.664,0.521016618,0.160098522,0.089790898
403.672,0.520039101,0.169950739,0.089790898
403.68,0.520039101,0.194581281,0.089790898
403.688,0.519061584,0.22044335,0.089790898
403.696,0.517106549,0.235221675,0.089790898
403.704,0.514173998,0.245073892,0.089790898
403.712,0.511241447,0.25,0.089790898
403.72,0.507331378,0.25,0.09102091
403.728,0.504398827,0.240147783,0.09102091
403.736,0.500488759,0.235221675,0.09102091
403.744,0.497556207,0.225369458,0.092250923
403.752,0.494623656,0.210591133,0.092250923
403.76,0.492668622,0.204433498,0.092250923
403.768,0.490713587,0.194581281,0.092250923
403.776,0.488758553,0.189655172,0.092250923
403.784,0.486803519,0.179802956,0.092250923
403.792,0.484848485,0.174876847,0.093480935
403.8,0.481915934,0.169950739,0.093480935
403.808,0.479960899,0.155172414,0.094710947
403.816,0.478005865,0.145320197,0.094710947
403.824,0.476050831,0.145320197,0.095940959
403.832,0.475073314,0.145320197,0.097170972
403.84,0.47311828,0.155172414,0.097170972
403.848,0.472140762,0.160098522,0.099630996
403.856,0.470185728,0.165024631,0.100861009
403.864,0.467253177,0.160098522,0.102091021
403.872,0.463343109,0.160098522,0.104551046
403.88,0.45943304,0.155172414,0.10701107
403.888,0.456500489,0.150246305,0.109471095
403.896,0.453567937,0.160098522,0.111931119
403.904,0.450635386,0.160098522,0.114391144
403.912,0.448680352,0.150246305,0.118081181
403.92,0.446725318,0.150246305,0.120541205
403.928,0.446725318,0.150246305,0.124231242
403.936,0.447702835,0.145320197,0.129151292
403.944,0.449657869,0.13546798,0.132841328
403.952,0.45259042,0.130541872,0.136531365
403.96,0.457478006,0.125615764,0.141451415
403.968,0.463343109,0.125615764,0.146371464
403.976,0.470185728,0.125615764,0.151291513
403.984,0.478005865,0.125615764,0.156211562
403.992,0.487781036,0.140394089,0.161131611
404,0.498533724,0.150246305,0.167281673
404.008,0.51026393,0.155172414,0.172201722
404.016,0.521016618,0.160098522,0.178351784
404.024,0.529814272,0.165024631,0.183271833
404.032,0.537634409,0.160098522,0.188191882
404.04,0.545454545,0.150246305,0.191881919
404.048,0.553274682,0.145320197,0.196801968
404.056,0.561094819,0.145320197,0.200492005
404.064,0.567937439,0.140394089,0.205412054
404.072,0.574780059,0.130541872,0.209102091
404.08,0.579667644,0.125615764,0.21402214
404.088,0.583577713,0.119458128,0.217712177
404.096,0.585532747,0.119458128,0.222632226
404.104,0.587487781,0.119458128,0.226322263
404.112,0.588465298,0.104679803,0.2300123
404.12,0.587487781,0.119458128,0.233702337
404.128,0.586510264,0.240147783,0.237392374
404.136,0.58455523,0.410098522,0.242312423
404.144,0.581622678,0.475369458,0.24600246
404.152,0.57771261,0.439655172,0.250922509
404.16,0.571847507,0.375615764,0.257072571
404.168,0.566959922,0.330049261,0.26199262
404.176,0.562072336,0.264778325,0.268142681
404.184,0.558162268,0.169950739,0.273062731
404.192,0.555229717,0.094827586,0.279212792
404.2,0.552297165,0.060344828,0.285362854
404.208,0.549364614,0.050492611,0.290282903
404.216,0.546432063,0.050492611,0.296432964
404.224,0.542521994,0.050492611,0.301353014
404.232,0.538611926,0.050492611,0.307503075
404.24,0.534701857,0.050492611,0.314883149
404.248,0.530791789,0.040640394,0.32103321
404.256,0.52688172,0.034482759,0.328413284
404.264,0.523949169,0.034482759,0.334563346
404.272,0.520039101,0.034482759,0.341943419
404.28,0.518084066,0.034482759,0.348093481
404.288,0.516129032,0.050492611,0.354243542
404.296,0.513196481,0.055418719,0.359163592
404.304,0.512218964,0.070197044,0.365313653
404.312,0.511241447,0.084975369,0.370233702
404.32,0.509286413,0.099753695,0.376383764
404.328,0.508308895,0.109605911,0.381303813
404.336,0.505376344,0.119458128,0.386223862
404.344,0.502443793,0.140394089,0.391143911
404.352,0.499511241,0.160098522,0.396063961
404.36,0.495601173,0.179802956,0.40098401
404.368,0.491691105,0.194581281,0.404674047
404.376,0.488758553,0.210591133,0.408364084
404.384,0.484848485,0.210591133,0.412054121
404.392,0.482893451,0.210591133,0.414514145
404.4,0.480938416,0.199507389,0.418204182
404.408,0.478983382,0.194581281,0.419434194
404.416,0.477028348,0.184729064,0.421894219
404.424,0.476050831,0.174876847,0.423124231
404.432,0.476050831,0.169950739,0.424354244
404.44,0.476050831,0.165024631,0.425584256
404.448,0.476050831,0.165024631,0.426814268
404.456,0.476050831,0.174876847,0.426814268
404.464,0.476050831,0.194581281,0.42804428
404.472,0.475073314,0.210591133,0.42804428
404.48,0.47311828,0.22044335,0.42804428
404.488,0.471163245,0.225369458,0.426814268
404.496,0.470185728,0.230295567,0.425584256
404.504,0.468230694,0.240147783,0.424354244
404.512,0.467253177,0.25,0.421894219
404.52,0.468230694,0.254926108,0.419434194
404.528,0.468230694,0.259852217,0.41697417
404.536,0.468230694,0.264778325,0.414514145
404.544,0.468230694,0.264778325,0.412054121
404.552,0.467253177,0.259852217,0.409594096
404.56,0.465298143,0.259852217,0.407134071
404.568,0.464320626,0.254926108,0.404674047
404.576,0.462365591,0.25,0.402214022
404.584,0.460410557,0.25,0.399753998
404.592,0.458455523,0.25,0.398523985
404.6,0.457478006,0.254926108,0.396063961
404.608,0.458455523,0.269704433,0.394833948
404.616,0.45943304,0.27955665,0.393603936
404.624,0.460410557,0.295566502,0.393603936
404.632,0.463343109,0.310344828,0.392373924
404.64,0.468230694,0.320197044,0.392373924
404.648,0.474095797,0.330049261,0.392373924
404.656,0.481915934,0.339901478,0.392373924
404.664,0.490713587,0.344827586,0.391143911
404.672,0.50342131,0.339901478,0.391143911
404.68,0.517106549,0.47044335,0.391143911
404.688,0.529814272,0.660098522,0.391143911
404.696,0.543499511,0.740147783,0.389913899
404.704,0.557184751,0.674876847,0.389913899
404.712,0.569892473,0.570197044,0.388683887
404.72,0.581622678,0.509852217,0.386223862
404.728,0.590420332,0.460591133,0.383763838
404.736,0.595307918,0.390394089,0.381303813
404.744,0.600195503,0.330049261,0.378843788
404.752,0.605083089,0.310344828,0.375153752
404.76,0.60801564,0.315270936,0.371463715
404.768,0.608993157,0.315270936,0.367773678
404.776,0.60801564,0.325123153,0.362853629
404.784,0.606060606,0.334975369,0.357933579
404.792,0.602150538,0.344827586,0.350553506
404.8,0.598240469,0.354679803,0.344403444
404.808,0.594330401,0.36453202,0.33702337
404.816,0.590420332,0.369458128,0.329643296
404.824,0.586510264,0.380541872,0.322263223
404.832,0.583577713,0.38546798,0.314883149
404.84,0.580645161,0.390394089,0.307503075
404.848,0.57771261,0.395320197,0.300123001
404.856,0.572825024,0.390394089,0.292742927
404.864,0.567937439,0.390394089,0.286592866
404.872,0.563049853,0.395320197,0.27798278
404.88,0.557184751,0.400246305,0.270602706
404.888,0.551319648,0.405172414,0.263222632
404.896,0.545454545,0.424876847,0.255842558
404.904,0.539589443,0.449507389,0.248462485
404.912,0.53372434,0.480295567,0.241082411
404.92,0.527859238,0.504926108,0.234932349
404.928,0.522971652,0.514778325,0.2300123
404.936,0.519061584,0.52955665,0.223862239
404.944,0.515151515,0.539408867,0.217712177
404.952,0.511241447,0.539408867,0.210332103
404.96,0.507331378,0.534482759,0.204182042
404.968,0.50342131,0.52955665,0.19803198
404.976,0.499511241,0.519704433,0.191881919
404.984,0.495601173,0.509852217,0.184501845
404.992,0.491691105,0.5,0.178351784
405,0.487781036,0.490147783,0.172201722
405.008,0.483870968,0.480295567,0.166051661
405.016,0.480938416,0.475369458,0.161131611
405.024,0.478983382,0.47044335,0.15498155
405.032,0.477028348,0.460591133,0.148831488
405.04,0.475073314,0.454433498,0.142681427
405.048,0.474095797,0.454433498,0.136531365
405.056,0.472140762,0.454433498,0.130381304
405.064,0.470185728,0.460591133,0.124231242
405.072,0.468230694,0.52955665,0.116851169
405.08,0.46627566,0.725369458,0.110701107
405.088,0.464320626,0.880541872,0.104551046
405.096,0.462365591,0.88546798,0.098400984
405.104,0.460410557,0.709359606,0.092250923
405.112,0.458455523,0.624384236,0.084870849
405.12,0.456500489,0.575123153,0.078720787
405.128,0.455522972,0.509852217,0.072570726
405.136,0.453567937,0.444581281,0.067650677
405.144,0.45259042,0.405172414,0.062730627
405.152,0.451612903,0.38546798,0.057810578
405.16,0.45259042,0.375615764,0.054120541
405.168,0.453567937,0.36453202,0.051660517
405.176,0.454545455,0.36453202,0.049200492
405.184,0.456500489,0.36453202,0.04797048
405.192,0.458455523,0.349753695,0.046740467
405.2,0.461388074,0.344827586,0.045510455
405.208,0.46627566,0.344827586,0.044280443
405.216,0.472140762,0.344827586,0.043050431
405.224,0.478983382,0.359605911,0.043050431
405.232,0.485826002,0.36453202,0.043050431
405.24,0.495601173,0.369458128,0.043050431
405.248,0.506353861,0.369458128,0.043050431
405.256,0.518084066,0.375615764,0.043050431
405.264,0.528836755,0.38546798,0.043050431
405.272,0.538611926,0.400246305,0.041820418
405.28,0.545454545,0.410098522,0.040590406
405.288,0.552297165,0.434729064,0.039360394
405.296,0.558162268,0.449507389,0.036900369
405.304,0.562072336,0.460591133,0.035670357
405.312,0.56402737,0.47044335,0.033210332
405.32,0.565982405,0.475369458,0.030750308
405.328,0.566959922,0.475369458,0.029520295
405.336,0.565982405,0.460591133,0.028290283
405.344,0.565004888,0.439655172,0.027060271
405.352,0.563049853,0.429802956,0.025830258
405.36,0.561094819,0.429802956,0.023370234
405.368,0.553274682,0.439655172,0.022140221
405.376,0.541544477,0.444581281,0.020910209
405.384,0.53372434,0.449507389,0.020910209
405.392,0.527859238,0.449507389,0.019680197
405.4,0.522971652,0.449507389,0.019680197
405.408,0.518084066,0.449507389,0.020910209
405.416,0.514173998,0.449507389,0.022140221
405.424,0.51026393,0.449507389,0.023370234
405.432,0.506353861,0.454433498,0.024600246
405.44,0.502443793,0.449507389,0.027060271
405.448,0.498533724,0.444581281,0.029520295
405.456,0.493646139,0.439655172,0.03198032
405.464,0.48973607,0.434729064,0.035670357
405.472,0.485826002,0.429802956,0.038130381
405.48,0.482893451,0.424876847,0.040590406
405.488,0.480938416,0.415024631,0.044280443
405.496,0.478983382,0.410098522,0.046740467
405.504,0.476050831,0.405172414,0.049200492
405.512,0.474095797,0.405172414,0.051660517
405.52,0.472140762,0.405172414,0.054120541
405.528,0.471163245,0.419950739,0.056580566
405.536,0.470185728,0.519704433,0.05904059
405.544,0.469208211,0.694581281,0.062730627
405.552,0.46627566,0.77955665,0.065190652
405.56,0.464320626,0.709359606,0.067650677
405.568,0.460410557,0.599753695,0.071340713
405.576,0.458455523,0.545566502,0.073800738
405.584,0.457478006,0.514778325,0.076260763
405.592,0.457478006,0.454433498,0.078720787
405.6,0.458455523,0.400246305,0.081180812
405.608,0.461388074,0.36453202,0.082410824
405.616,0.46627566,0.354679803,0.084870849
405.624,0.47311828,0.344827586,0.084870849
405.632,0.478005865,0.334975369,0.086100861
405.64,0.483870968,0.330049261,0.087330873
405.648,0.488758553,0.325123153,0.088560886
405.656,0.493646139,0.325123153,0.089790898
405.664,0.498533724,0.334975369,0.09102091
405.672,0.50342131,0.344827586,0.09102091
405.68,0.507331378,0.359605911,0.092250923
405.688,0.51026393,0.36453202,0.092250923
405.696,0.512218964,0.36453202,0.093480935
405.704,0.514173998,0.36453202,0.093480935
405.712,0.515151515,0.36453202,0.093480935
405.72,0.513196481,0.369458128,0.093480935
405.728,0.51026393,0.380541872,0.093480935
405.736,0.506353861,0.395320197,0.093480935
405.744,0.502443793,0.415024631,0.093480935
405.752,0.498533724,0.434729064,0.093480935
405.76,0.493646139,0.449507389,0.094710947
405.768,0.48973607,0.465517241,0.094710947
405.776,0.484848485,0.47044335,0.095940959
405.784,0.480938416,0.47044335,0.095940959
405.792,0.478005865,0.47044335,0.097170972
405.8,0.475073314,0.460591133,0.098400984
405.808,0.471163245,0.454433498,0.099630996
405.816,0.467253177,0.444581281,0.099630996
405.824,0.464320626,0.434729064,0.100861009
405.832,0.461388074,0.429802956,0.102091021
405.84,0.458455523,0.424876847,0.103321033
405.848,0.455522972,0.419950739,0.104551046
405.856,0.45259042,0.410098522,0.105781058
405.864,0.449657869,0.405172414,0.10701107
405.872,0.446725318,0.395320197,0.10701107
405.88,0.444770283,0.390394089,0.10701107
405.888,0.442815249,0.38546798,0.108241082
405.896,0.439882698,0.38546798,0.108241082
405.904,0.437927664,0.380541872,0.108241082
405.912,0.43597263,0.369458128,0.109471095
405.92,0.43597263,0.359605911,0.109471095
405.928,0.434995112,0.339901478,0.109471095
405.936,0.434017595,0.325123153,0.109471095
405.944,0.433040078,0.300492611,0.109471095
405.952,0.433040078,0.27955665,0.109471095
405.96,0.434995112,0.264778325,0.109471095
405.968,0.43597263,0.259852217,0.110701107
405.976,0.437927664,0.259852217,0.110701107
405.984,0.439882698,0.254926108,0.110701107
405.992,0.439882698,0.25,0.111931119
406,0.438905181,0.245073892,0.111931119
406.008,0.437927664,0.240147783,0.113161132
406.016,0.436950147,0.240147783,0.113161132
406.024,0.43597263,0.245073892,0.114391144
406.032,0.436950147,0.25,0.115621156
406.04,0.438905181,0.25,0.115621156
406.048,0.443792766,0.289408867,0.116851169
406.056,0.450635386,0.439655172,0.118081181
406.064,0.460410557,0.584975369,0.119311193
406.072,0.47311828,0.599753695,0.119311193
406.08,0.487781036,0.454433498,0.120541205
406.088,0.502443793,0.354679803,0.120541205
406.096,0.517106549,0.305418719,0.120541205
406.104,0.532746823,0.259852217,0.119311193
406.112,0.545454545,0.210591133,0.118081181
406.12,0.556207234,0.169950739,0.115621156
406.128,0.565004888,0.160098522,0.114391144
406.136,0.572825024,0.160098522,0.111931119
406.144,0.578690127,0.155172414,0.110701107
406.152,0.583577713,0.150246305,0.10701107
406.16,0.586510264,0.150246305,0.104551046
406.168,0.587487781,0.155172414,0.100861009
406.176,0.587487781,0.155172414,0.098400984
406.184,0.58455523,0.155172414,0.094710947
406.192,0.581622678,0.155172414,0.09102091
406.2,0.578690127,0.155172414,0.087330873
406.208,0.575757576,0.155172414,0.084870849
406.216,0.572825024,0.150246305,0.082410824
406.224,0.57086999,0.150246305,0.0799508
406.232,0.567937439,0.150246305,0.077490775
406.24,0.565982405,0.150246305,0.07503075
406.248,0.56402737,0.155172414,0.073800738
406.256,0.561094819,0.165024631,0.073800738
406.264,0.559139785,0.169950739,0.072570726
406.272,0.556207234,0.184729064,0.072570726
406.28,0.551319648,0.199507389,0.073800738
406.288,0.54740958,0.22044335,0.07503075
406.296,0.542521994,0.235221675,0.077490775
406.304,0.536656891,0.245073892,0.0799508
406.312,0.529814272,0.240147783,0.083640836
406.32,0.523949169,0.235221675,0.086100861
406.328,0.519061584,0.230295567,0.089790898
406.336,0.513196481,0.225369458,0.094710947
406.344,0.508308895,0.210591133,0.098400984
406.352,0.50342131,0.204433498,0.102091021
406.36,0.498533724,0.194581281,0.105781058
406.368,0.494623656,0.189655172,0.109471095
406.376,0.490713587,0.189655172,0.113161132
406.384,0.486803519,0.194581281,0.116851169
406.392,0.482893451,0.194581281,0.121771218
406.4,0.479960899,0.194581281,0.125461255
406.408,0.476050831,0.189655172,0.130381304
406.416,0.47311828,0.189655172,0.134071341
406.424,0.470185728,0.179802956,0.137761378
406.432,0.46627566,0.174876847,0.141451415
406.44,0.462365591,0.174876847,0.145141451
406.448,0.458455523,0.174876847,0.148831488
406.456,0.454545455,0.184729064,0.152521525
406.464,0.449657869,0.184729064,0.15498155
406.472,0.445747801,0.179802956,0.158671587
406.48,0.442815249,0.174876847,0.162361624
406.488,0.440860215,0.174876847,0.166051661
406.496,0.437927664,0.174876847,0.169741697
406.504,0.43597263,0.169950739,0.173431734
406.512,0.434017595,0.165024631,0.175891759
406.52,0.433040078,0.165024631,0.178351784
406.528,0.433040078,0.165024631,0.180811808
406.536,0.433040078,0.165024631,0.183271833
406.544,0.434995112,0.169950739,0.18696187
406.552,0.437927664,0.169950739,0.190651907
406.56,0.442815249,0.165024631,0.193111931
406.568,0.450635386,0.160098522,0.196801968
406.576,0.460410557,0.155172414,0.199261993
406.584,0.472140762,0.150246305,0.20295203
406.592,0.483870968,0.145320197,0.205412054
406.6,0.49657869,0.150246305,0.207872079
406.608,0.508308895,0.145320197,0.211562116
406.616,0.519061584,0.145320197,0.21402214
406.624,0.528836755,0.145320197,0.216482165
406.632,0.536656891,0.13546798,0.217712177
406.64,0.545454545,0.125615764,0.220172202
406.648,0.555229717,0.179802956,0.221402214
406.656,0.563049853,0.339901478,0.223862239
406.664,0.568914956,0.490147783,0.223862239
406.672,0.572825024,0.514778325,0.225092251
406.68,0.575757576,0.444581281,0.226322263
406.688,0.576735093,0.38546798,0.227552276
406.696,0.576735093,0.339901478,0.227552276
406.704,0.575757576,0.264778325,0.228782288
406.712,0.573802542,0.174876847,0.228782288
406.72,0.571847507,0.109605911,0.228782288
406.728,0.567937439,0.080049261,0.2300123
406.736,0.56402737,0.060344828,0.232472325
406.744,0.561094819,0.060344828,0.233702337
406.752,0.558162268,0.060344828,0.236162362
406.76,0.555229717,0.060344828,0.238622386
406.768,0.552297165,0.055418719,0.241082411
406.776,0.550342131,0.055418719,0.243542435
406.784,0.545454545,0.055418719,0.24600246
406.792,0.54056696,0.050492611,0.249692497
406.8,0.534701857,0.050492611,0.253382534
406.808,0.527859238,0.055418719,0.259532595
406.816,0.521994135,0.070197044,0.264452645
406.824,0.516129032,0.084975369,0.269372694
406.832,0.512218964,0.099753695,0.274292743
406.84,0.507331378,0.109605911,0.280442804
406.848,0.504398827,0.125615764,0.285362854
406.856,0.502443793,0.140394089,0.290282903
406.864,0.501466276,0.145320197,0.296432964
406.872,0.501466276,0.155172414,0.302583026
406.88,0.500488759,0.165024631,0.307503075
406.888,0.498533724,0.179802956,0.313653137
406.896,0.49657869,0.194581281,0.319803198
406.904,0.492668622,0.210591133,0.32595326
406.912,0.488758553,0.225369458,0.332103321
406.92,0.485826002,0.230295567,0.33702337
406.928,0.481915934,0.235221675,0.341943419
406.936,0.478005865,0.225369458,0.345633456
406.944,0.474095797,0.215517241,0.349323493
406.952,0.471163245,0.210591133,0.351783518
406.96,0.469208211,0.22044335,0.355473555
406.968,0.468230694,0.230295567,0.356703567
406.976,0.467253177,0.245073892,0.359163592
406.984,0.46627566,0.259852217,0.360393604
406.992,0.465298143,0.274630542,0.361623616
407,0.462365591,0.27955665,0.362853629
407.008,0.458455523,0.284482759,0.362853629
407.016,0.456500489,0.27955665,0.362853629
407.024,0.453567937,0.274630542,0.362853629
407.032,0.450635386,0.274630542,0.360393604
407.04,0.446725318,0.269704433,0.359163592
407.048,0.443792766,0.269704433,0.355473555
407.056,0.440860215,0.274630542,0.35301353
407.064,0.437927664,0.284482759,0.348093481
407.072,0.43597263,0.289408867,0.344403444
407.08,0.434017595,0.295566502,0.340713407
407.088,0.431085044,0.295566502,0.33702337
407.096,0.42913001,0.295566502,0.333333333
407.104,0.427174976,0.300492611,0.329643296
407.112,0.426197458,0.305418719,0.32595326
407.12,0.425219941,0.315270936,0.323493235
407.128,0.426197458,0.325123153,0.319803198
407.136,0.427174976,0.330049261,0.316113161
407.144,0.430107527,0.339901478,0.313653137
407.152,0.43597263,0.344827586,0.311193112
407.16,0.442815249,0.359605911,0.3099631
407.168,0.451612903,0.36453202,0.307503075
407.176,0.463343109,0.369458128,0.30504305
407.184,0.475073314,0.369458128,0.303813038
407.192,0.488758553,0.369458128,0.301353014
407.2,0.502443793,0.369458128,0.298892989
407.208,0.515151515,0.369458128,0.295202952
407.216,0.525904203,0.380541872,0.292742927
407.224,0.535679374,0.38546798,0.289052891
407.232,0.546432063,0.380541872,0.285362854
407.24,0.557184751,0.380541872,0.281672817
407.248,0.567937439,0.380541872,0.27798278
407.256,0.57771261,0.375615764,0.274292743
407.264,0.585532747,0.419950739,0.269372694
407.272,0.591397849,0.580049261,0.263222632
407.28,0.597262952,0.75,0.257072571
407.288,0.601173021,0.77955665,0.249692497
407.296,0.602150538,0.674876847,0.242312423
407.304,0.601173021,0.584975369,0.234932349
407.312,0.598240469,0.545566502,0.227552276
407.32,0.593352884,0.490147783,0.218942189
407.328,0.587487781,0.424876847,0.211562116
407.336,0.580645161,0.380541872,0.20295203
407.344,0.574780059,0.36453202,0.194341943
407.352,0.567937439,0.359605911,0.185731857
407.36,0.561094819,0.359605911,0.177121771
407.368,0.555229717,0.36453202,0.167281673
407.376,0.548387097,0.369458128,0.157441574
407.384,0.541544477,0.36453202,0.148831488
407.392,0.534701857,0.36453202,0.13899139
407.4,0.528836755,0.36453202,0.131611316
407.408,0.521994135,0.369458128,0.124231242
407.416,0.512218964,0.369458128,0.118081181
407.424,0.502443793,0.380541872,0.111931119
407.432,0.495601173,0.390394089,0.105781058
407.44,0.48973607,0.405172414,0.099630996
407.448,0.483870968,0.415024631,0.094710947
407.456,0.478983382,0.424876847,0.089790898
407.464,0.474095797,0.429802956,0.084870849
407.472,0.470185728,0.434729064,0.081180812
407.48,0.465298143,0.449507389,0.077490775
407.488,0.460410557,0.47044335,0.073800738
407.496,0.456500489,0.485221675,0.070110701
407.504,0.451612903,0.495073892,0.066420664
407.512,0.446725318,0.5,0.061500615
407.52,0.442815249,0.514778325,0.057810578
407.528,0.438905181,0.519704433,0.054120541
407.536,0.434995112,0.524630542,0.049200492
407.544,0.431085044,0.524630542,0.045510455
407.552,0.427174976,0.519704433,0.040590406
407.56,0.424242424,0.514778325,0.038130381
407.568,0.421309873,0.514778325,0.034440344
407.576,0.419354839,0.514778325,0.03198032
407.584,0.418377322,0.514778325,0.029520295
407.592,0.417399804,0.519704433,0.027060271
407.6,0.41544477,0.519704433,0.024600246
407.608,0.413489736,0.514778325,0.020910209
407.616,0.412512219,0.509852217,0.018450185
407.624,0.409579668,0.5,0.01599016
407.632,0.404692082,0.5,0.013530135
407.64,0.399804497,0.495073892,0.012300123
407.648,0.394916911,0.490147783,0.009840098
407.656,0.39198436,0.475369458,0.007380074
407.664,0.389051808,0.460591133,0.006150062
407.672,0.387096774,0.454433498,0.003690037
407.68,0.384164223,0.454433498,0.001230012
407.688,0.382209189,0.454433498,-0.001230012
407.696,0.379276637,0.449507389,-0.002460025
407.704,0.377321603,0.454433498,-0.003690037
407.712,0.375366569,0.454433498,-0.004920049
407.72,0.373411535,0.454433498,-0.006150062
407.728,0.372434018,0.454433498,-0.006150062
407.736,0.372434018,0.460591133,-0.007380074
407.744,0.3714565,0.465517241,-0.007380074
407.752,0.370478983,0.465517241,-0.007380074
407.76,0.3714565,0.465517241,-0.006150062
407.768,0.373411535,0.465517241,-0.004920049
407.776,0.376344086,0.465517241,-0.003690037
407.784,0.383186706,0.47044335,-0.002460025
407.792,0.39198436,0.460591133,-0.001230012
407.8,0.403714565,0.454433498,0
407.808,0.418377322,0.449507389,0.002460025
407.816,0.431085044,0.439655172,0.003690037
407.824,0.444770283,0.434729064,0.004920049
407.832,0.45943304,0.434729064,0.006150062
407.84,0.474095797,0.434729064,0.007380074
407.848,0.487781036,0.434729064,0.007380074
407.856,0.499511241,0.439655172,0.008610086
407.864,0.511241447,0.444581281,0.008610086
407.872,0.521016618,0.449507389,0.008610086
407.88,0.528836755,0.454433498,0.008610086
407.888,0.535679374,0.449507389,0.008610086
407.896,0.541544477,0.444581281,0.008610086
407.904,0.545454545,0.444581281,0.008610086
407.912,0.548387097,0.444581281,0.007380074
407.92,0.549364614,0.439655172,0.007380074
407.928,0.549364614,0.439655172,0.007380074
407.936,0.54740958,0.444581281,0.006150062
407.944,0.546432063,0.434729064,0.006150062
407.952,0.544477028,0.429802956,0.004920049
407.96,0.541544477,0.419950739,0.004920049
407.968,0.537634409,0.419950739,0.004920049
407.976,0.53372434,0.424876847,0.004920049
407.984,0.529814272,0.429802956,0.006150062
407.992,0.525904203,0.434729064,0.007380074
408,0.521016618,0.439655172,0.008610086
408.008,0.516129032,0.439655172,0.009840098
408.016,0.511241447,0.439655172,0.012300123
408.024,0.506353861,0.434729064,0.014760148
408.032,0.501466276,0.434729064,0.017220172
408.04,0.49657869,0.429802956,0.020910209
408.048,0.492668622,0.424876847,0.023370234
408.056,0.48973607,0.47044335,0.027060271
408.064,0.486803519,0.630541872,0.030750308
408.072,0.482893451,0.77955665,0.034440344
408.08,0.478983382,0.795566502,0.038130381
408.088,0.474095797,0.655172414,0.041820418
408.096,0.470185728,0.555418719,0.045510455
408.104,0.467253177,0.504926108,0.049200492
408.112,0.464320626,0.449507389,0.052890529
408.12,0.462365591,0.390394089,0.055350554
408.128,0.460410557,0.359605911,0.05904059
408.136,0.458455523,0.354679803,0.061500615
408.144,0.456500489,0.354679803,0.06396064
408.152,0.453567937,0.359605911,0.066420664
408.16,0.450635386,0.36453202,0.068880689
408.168,0.446725318,0.36453202,0.071340713
408.176,0.441837732,0.375615764,0.073800738
408.184,0.437927664,0.380541872,0.07503075
408.192,0.433040078,0.38546798,0.077490775
408.2,0.42913001,0.38546798,0.078720787
408.208,0.427174976,0.38546798,0.0799508
408.216,0.425219941,0.380541872,0.081180812
408.224,0.424242424,0.369458128,0.082410824
408.232,0.423264907,0.36453202,0.082410824
408.24,0.42228739,0.36453202,0.083640836
408.248,0.421309873,0.354679803,0.083640836
408.256,0.420332356,0.349753695,0.083640836
408.264,0.420332356,0.354679803,0.083640836
408.272,0.419354839,0.36453202,0.083640836
408.28,0.419354839,0.395320197,0.083640836
408.288,0.418377322,0.419950739,0.083640836
408.296,0.417399804,0.439655172,0.083640836
408.304,0.41544477,0.449507389,0.082410824
408.312,0.413489736,0.454433498,0.082410824
408.32,0.412512219,0.460591133,0.082410824
408.328,0.410557185,0.454433498,0.081180812
408.336,0.407624633,0.454433498,0.081180812
408.344,0.404692082,0.444581281,0.081180812
408.352,0.400782014,0.429802956,0.0799508
408.36,0.398826979,0.415024631,0.0799508
408.368,0.395894428,0.405172414,0.078720787
408.376,0.393939394,0.38546798,0.078720787
408.384,0.391006843,0.36453202,0.077490775
408.392,0.389051808,0.344827586,0.077490775
408.4,0.387096774,0.325123153,0.076260763
408.408,0.386119257,0.305418719,0.076260763
408.416,0.38514174,0.295566502,0.07503075
408.424,0.384164223,0.284482759,0.07503075
408.432,0.383186706,0.284482759,0.07503075
408.44,0.381231672,0.295566502,0.073800738
408.448,0.379276637,0.27955665,0.073800738
408.456,0.377321603,0.310344828,0.072570726
408.464,0.375366569,0.454433498,0.072570726
408.472,0.372434018,0.619458128,0.071340713
408.48,0.370478983,0.640394089,0.071340713
408.488,0.368523949,0.480295567,0.072570726
408.496,0.365591398,0.375615764,0.072570726
408.504,0.363636364,0.330049261,0.073800738
408.512,0.361681329,0.284482759,0.07503075
408.52,0.359726295,0.230295567,0.077490775
408.528,0.358748778,0.184729064,0.078720787
408.536,0.358748778,0.160098522,0.0799508
408.544,0.359726295,0.150246305,0.081180812
408.552,0.362658847,0.140394089,0.083640836
408.56,0.366568915,0.125615764,0.086100861
408.568,0.373411535,0.104679803,0.088560886
408.576,0.382209189,0.099753695,0.09102091
408.584,0.393939394,0.099753695,0.092250923
408.592,0.407624633,0.104679803,0.094710947
408.6,0.42228739,0.11453202,0.097170972
408.608,0.438905181,0.125615764,0.098400984
408.616,0.454545455,0.130541872,0.099630996
408.624,0.470185728,0.140394089,0.100861009
408.632,0.486803519,0.140394089,0.102091021
408.64,0.502443793,0.145320197,0.102091021
408.648,0.518084066,0.160098522,0.103321033
408.656,0.530791789,0.169950739,0.103321033
408.664,0.543499511,0.184729064,0.103321033
408.672,0.554252199,0.204433498,0.103321033
408.68,0.562072336,0.225369458,0.103321033
408.688,0.568914956,0.235221675,0.102091021
408.696,0.573802542,0.240147783,0.102091021
408.704,0.576735093,0.245073892,0.102091021
408.712,0.57771261,0.240147783,0.100861009
408.72,0.578690127,0.235221675,0.100861009
408.728,0.57771261,0.215517241,0.099630996
408.736,0.575757576,0.204433498,0.099630996
408.744,0.573802542,0.194581281,0.100861009
408.752,0.57086999,0.189655172,0.100861009
408.76,0.567937439,0.184729064,0.103321033
408.768,0.56402737,0.174876847,0.105781058
408.776,0.559139785,0.169950739,0.109471095
408.784,0.552297165,0.169950739,0.111931119
408.792,0.546432063,0.169950739,0.116851169
408.8,0.541544477,0.169950739,0.121771218
408.808,0.536656891,0.169950739,0.126691267
408.816,0.531769306,0.169950739,0.132841328
408.824,0.52688172,0.169950739,0.137761378
408.832,0.521994135,0.165024631,0.143911439
408.84,0.516129032,0.165024631,0.150061501
408.848,0.509286413,0.160098522,0.15498155
408.856,0.50342131,0.150246305,0.159901599
408.864,0.498533724,0.145320197,0.166051661
408.872,0.492668622,0.140394089,0.17097171
408.88,0.488758553,0.130541872,0.175891759
408.888,0.485826002,0.130541872,0.180811808
408.896,0.483870968,0.145320197,0.185731857
408.904,0.482893451,0.160098522,0.190651907
408.912,0.480938416,0.169950739,0.195571956
408.92,0.479960899,0.174876847,0.199261993
408.928,0.478005865,0.174876847,0.20295203
408.936,0.475073314,0.174876847,0.205412054
408.944,0.471163245,0.169950739,0.209102091
408.952,0.467253177,0.165024631,0.211562116
408.96,0.463343109,0.160098522,0.21402214
408.968,0.45943304,0.259852217,0.215252153
408.976,0.456500489,0.429802956,0.217712177
408.984,0.455522972,0.5,0.220172202
408.992,0.454545455,0.449507389,0.222632226
409,0.454545455,0.359605911,0.223862239
409.008,0.456500489,0.300492611,0.226322263
409.016,0.45943304,0.235221675,0.227552276
409.024,0.461388074,0.145320197,0.228782288
409.032,0.464320626,0.070197044,0.2300123
409.04,0.46627566,0.02955665,0.232472325
409.048,0.469208211,0.02955665,0.233702337
409.056,0.472140762,0.034482759,0.234932349
409.064,0.475073314,0.045566502,0.237392374
409.072,0.477028348,0.060344828,0.238622386
409.08,0.478005865,0.070197044,0.241082411
409.088,0.478983382,0.075123153,0.243542435
409.096,0.478005865,0.080049261,0.24600246
409.104,0.476050831,0.080049261,0.248462485
409.112,0.47311828,0.080049261,0.250922509
409.12,0.470185728,0.084975369,0.254612546
409.128,0.467253177,0.084975369,0.258302583
409.136,0.464320626,0.084975369,0.26199262
409.144,0.460410557,0.089901478,0.265682657
409.152,0.457478006,0.084975369,0.269372694
409.16,0.453567937,0.084975369,0.273062731
409.168,0.450635386,0.080049261,0.276752768
409.176,0.446725318,0.075123153,0.281672817
409.184,0.442815249,0.080049261,0.285362854
409.192,0.439882698,0.094827586,0.290282903
409.2,0.436950147,0.119458128,0.29397294
409.208,0.433040078,0.145320197,0.298892989
409.216,0.42913001,0.165024631,0.302583026
409.224,0.426197458,0.179802956,0.307503075
409.232,0.423264907,0.194581281,0.311193112
409.24,0.421309873,0.199507389,0.316113161
409.248,0.418377322,0.204433498,0.32103321
409.256,0.416422287,0.199507389,0.32595326
409.264,0.414467253,0.194581281,0.329643296
409.272,0.413489736,0.189655172,0.334563346
409.28,0.413489736,0.194581281,0.339483395
409.288,0.412512219,0.194581281,0.343173432
409.296,0.411534702,0.194581281,0.346863469
409.304,0.411534702,0.189655172,0.350553506
409.312,0.411534702,0.184729064,0.354243542
409.32,0.411534702,0.174876847,0.356703567
409.328,0.411534702,0.160098522,0.359163592
409.336,0.410557185,0.150246305,0.360393604
409.344,0.410557185,0.145320197,0.362853629
409.352,0.408602151,0.145320197,0.365313653
409.36,0.406647116,0.150246305,0.366543665
409.368,0.404692082,0.165024631,0.36900369
409.376,0.402737048,0.165024631,0.370233702
409.384,0.399804497,0.169950739,0.371463715
409.392,0.397849462,0.169950739,0.372693727
409.4,0.396871945,0.169950739,0.373923739
409.408,0.395894428,0.179802956,0.375153752
409.416,0.395894428,0.189655172,0.376383764
409.424,0.396871945,0.199507389,0.377613776
409.432,0.398826979,0.210591133,0.378843788
409.44,0.400782014,0.215517241,0.380073801
409.448,0.402737048,0.225369458,0.381303813
409.456,0.404692082,0.230295567,0.383763838
409.464,0.418377322,0.235221675,0.38499385
409.472,0.437927664,0.240147783,0.386223862
409.48,0.450635386,0.240147783,0.387453875
409.488,0.462365591,0.240147783,0.388683887
409.496,0.474095797,0.240147783,0.388683887
409.504,0.485826002,0.25,0.389913899
409.512,0.498533724,0.269704433,0.389913899
409.52,0.509286413,0.284482759,0.389913899
409.528,0.521016618,0.295566502,0.388683887
409.536,0.531769306,0.300492611,0.388683887
409.544,0.542521994,0.300492611,0.387453875
409.552,0.553274682,0.300492611,0.387453875
409.56,0.563049853,0.305418719,0.386223862
409.568,0.572825024,0.310344828,0.386223862
409.576,0.580645161,0.315270936,0.383763838
409.584,0.587487781,0.315270936,0.382533825
409.592,0.591397849,0.310344828,0.380073801
409.6,0.594330401,0.36453202,0.376383764
409.608,0.596285435,0.524630542,0.372693727
409.616,0.596285435,0.674876847,0.36900369
409.624,0.595307918,0.699507389,0.365313653
409.632,0.593352884,0.589901478,0.360393604
409.64,0.590420332,0.504926108,0.355473555
409.648,0.587487781,0.465517241,0.351783518
409.656,0.583577713,0.415024631,0.346863469
409.664,0.579667644,0.354679803,0.343173432
409.672,0.574780059,0.334975369,0.338253383
409.68,0.568914956,0.330049261,0.332103321
409.688,0.563049853,0.325123153,0.32595326
409.696,0.558162268,0.325123153,0.319803198
409.704,0.552297165,0.325123153,0.313653137
409.712,0.546432063,0.325123153,0.307503075
409.72,0.541544477,0.330049261,0.301353014
409.728,0.537634409,0.334975369,0.295202952
409.736,0.53372434,0.339901478,0.287822878
409.744,0.529814272,0.344827586,0.280442804
409.752,0.524926686,0.349753695,0.271832718
409.76,0.521994135,0.354679803,0.263222632
409.768,0.518084066,0.36453202,0.253382534
409.776,0.514173998,0.36453202,0.243542435
409.784,0.51026393,0.36453202,0.233702337
409.792,0.506353861,0.36453202,0.223862239
409.8,0.502443793,0.369458128,0.215252153
409.808,0.49657869,0.380541872,0.206642066
409.816,0.492668622,0.400246305,0.19803198
409.824,0.488758553,0.429802956,0.190651907
409.832,0.484848485,0.454433498,0.18204182
409.84,0.479960899,0.47044335,0.174661747
409.848,0.476050831,0.490147783,0.166051661
409.856,0.472140762,0.5,0.158671587
409.864,0.468230694,0.509852217,0.151291513
409.872,0.464320626,0.514778325,0.143911439
409.88,0.462365591,0.519704433,0.137761378
409.888,0.45943304,0.519704433,0.131611316
409.896,0.457478006,0.509852217,0.125461255
409.904,0.455522972,0.509852217,0.118081181
409.912,0.454545455,0.504926108,0.111931119
409.92,0.451612903,0.5,0.104551046
409.928,0.448680352,0.495073892,0.097170972
409.936,0.444770283,0.490147783,0.09102091
409.944,0.439882698,0.475369458,0.083640836
409.952,0.43597263,0.475369458,0.076260763
409.96,0.432062561,0.475369458,0.071340713
409.968,0.428152493,0.485221675,0.066420664
409.976,0.425219941,0.495073892,0.061500615
409.984,0.423264907,0.5,0.057810578
409.992,0.420332356,0.5,0.054120541
410,0.418377322,0.5,0.050430504
410.008,0.417399804,0.495073892,0.046740467
410.016,0.416422287,0.495073892,0.044280443
410.024,0.41544477,0.495073892,0.040590406
410.032,0.414467253,0.490147783,0.038130381
410.04,0.412512219,0.524630542,0.036900369
410.048,0.410557185,0.669950739,0.034440344
410.056,0.408602151,0.825123153,0.033210332
410.064,0.405669599,0.844827586,0.03198032
410.072,0.403714565,0.699507389,0.030750308
410.08,0.402737048,0.594827586,0.030750308
410.088,0.402737048,0.52955665,0.030750308
410.096,0.403714565,0.465517241,0.030750308
410.104,0.406647116,0.390394089,0.030750308
410.112,0.410557185,0.344827586,0.030750308
410.12,0.41544477,0.334975369,0.03198032
410.128,0.423264907,0.349753695,0.033210332
410.136,0.432062561,0.359605911,0.033210332
410.144,0.443792766,0.369458128,0.034440344
410.152,0.456500489,0.369458128,0.035670357
410.16,0.470185728,0.380541872,0.035670357
410.168,0.482893451,0.38546798,0.035670357
410.176,0.49657869,0.390394089,0.035670357
410.184,0.508308895,0.400246305,0.035670357
410.192,0.520039101,0.405172414,0.034440344
410.2,0.529814272,0.400246305,0.034440344
410.208,0.539589443,0.400246305,0.034440344
410.216,0.546432063,0.400246305,0.033210332
410.224,0.552297165,0.400246305,0.03198032
410.232,0.557184751,0.400246305,0.030750308
410.24,0.560117302,0.390394089,0.028290283
410.248,0.562072336,0.390394089,0.027060271
410.256,0.563049853,0.400246305,0.024600246
410.264,0.562072336,0.410098522,0.022140221
410.272,0.561094819,0.429802956,0.020910209
410.28,0.559139785,0.454433498,0.019680197
410.288,0.556207234,0.475369458,0.018450185
410.296,0.553274682,0.485221675,0.017220172
410.304,0.548387097,0.490147783,0.01599016
410.312,0.544477028,0.475369458,0.01599016
410.32,0.541544477,0.460591133,0.01599016
410.328,0.538611926,0.454433498,0.01599016
410.336,0.536656891,0.454433498,0.017220172
410.344,0.532746823,0.454433498,0.017220172
410.352,0.528836755,0.454433498,0.018450185
410.36,0.524926686,0.449507389,0.019680197
410.368,0.520039101,0.444581281,0.022140221
410.376,0.517106549,0.434729064,0.023370234
410.384,0.513196481,0.429802956,0.024600246
410.392,0.51026393,0.429802956,0.027060271
410.4,0.507331378,0.429802956,0.028290283
410.408,0.504398827,0.429802956,0.030750308
410.416,0.501466276,0.429802956,0.03198032
410.424,0.498533724,0.429802956,0.034440344
410.432,0.495601173,0.434729064,0.036900369
410.44,0.492668622,0.429802956,0.039360394
410.448,0.490713587,0.424876847,0.040590406
410.456,0.487781036,0.415024631,0.043050431
410.464,0.485826002,0.405172414,0.045510455
410.472,0.483870968,0.405172414,0.04797048
410.48,0.481915934,0.405172414,0.049200492
410.488,0.479960899,0.405172414,0.051660517
410.496,0.478005865,0.405172414,0.054120541
410.504,0.475073314,0.405172414,0.055350554
410.512,0.47311828,0.400246305,0.057810578
410.52,0.470185728,0.400246305,0.05904059
410.528,0.467253177,0.400246305,0.061500615
410.536,0.465298143,0.400246305,0.062730627
410.544,0.464320626,0.395320197,0.065190652
410.552,0.464320626,0.390394089,0.066420664
410.56,0.465298143,0.390394089,0.068880689
410.568,0.467253177,0.395320197,0.070110701
410.576,0.471163245,0.395320197,0.072570726
410.584,0.476050831,0.449507389,0.073800738
410.592,0.482893451,0.609605911,0.07503075
410.6,0.48973607,0.759852217,0.076260763
410.608,0.49657869,0.774630542,0.078720787
410.616,0.502443793,0.63546798,0.078720787
410.624,0.508308895,0.539408867,0.0799508
410.632,0.513196481,0.509852217,0.0799508
410.64,0.519061584,0.475369458,0.081180812
410.648,0.522971652,0.415024631,0.081180812
410.656,0.525904203,0.375615764,0.081180812
410.664,0.527859238,0.349753695,0.081180812
410.672,0.530791789,0.334975369,0.081180812
410.68,0.532746823,0.325123153,0.081180812
410.688,0.53372434,0.325123153,0.0799508
410.696,0.532746823,0.320197044,0.0799508
410.704,0.530791789,0.310344828,0.0799508
410.712,0.527859238,0.300492611,0.0799508
410.72,0.523949169,0.300492611,0.078720787
410.728,0.520039101,0.315270936,0.078720787
410.736,0.516129032,0.330049261,0.078720787
410.744,0.513196481,0.344827586,0.077490775
410.752,0.51026393,0.354679803,0.077490775
410.76,0.507331378,0.36453202,0.077490775
410.768,0.504398827,0.380541872,0.077490775
410.776,0.501466276,0.38546798,0.077490775
410.784,0.498533724,0.395320197,0.078720787
410.792,0.494623656,0.405172414,0.0799508
410.8,0.490713587,0.424876847,0.081180812
410.808,0.487781036,0.444581281,0.082410824
410.816,0.484848485,0.465517241,0.084870849
410.824,0.481915934,0.490147783,0.086100861
410.832,0.478983382,0.5,0.088560886
410.84,0.477028348,0.5,0.089790898
410.848,0.476050831,0.495073892,0.09102091
410.856,0.476050831,0.480295567,0.093480935
410.864,0.476050831,0.460591133,0.094710947
410.872,0.475073314,0.434729064,0.095940959
410.88,0.47311828,0.419950739,0.097170972
410.888,0.470185728,0.415024631,0.099630996
410.896,0.467253177,0.410098522,0.100861009
410.904,0.464320626,0.405172414,0.102091021
410.912,0.462365591,0.400246305,0.103321033
410.92,0.460410557,0.395320197,0.104551046
410.928,0.45943304,0.390394089,0.104551046
410.936,0.457478006,0.390394089,0.105781058
410.944,0.455522972,0.390394089,0.105781058
410.952,0.453567937,0.390394089,0.105781058
410.96,0.451612903,0.390394089,0.105781058
410.968,0.449657869,0.390394089,0.105781058
410.976,0.447702835,0.38546798,0.104551046
410.984,0.445747801,0.375615764,0.104551046
410.992,0.443792766,0.36453202,0.104551046
411,0.441837732,0.344827586,0.103321033
411.008,0.440860215,0.325123153,0.103321033
411.016,0.439882698,0.305418719,0.102091021
411.024,0.439882698,0.284482759,0.102091021
411.032,0.438905181,0.274630542,0.100861009
411.04,0.438905181,0.274630542,0.100861009
411.048,0.437927664,0.269704433,0.100861009
411.056,0.437927664,0.254926108,0.100861009
411.064,0.437927664,0.240147783,0.100861009
411.072,0.438905181,0.235221675,0.100861009
411.08,0.439882698,0.225369458,0.102091021
411.088,0.442815249,0.225369458,0.102091021
411.096,0.448680352,0.225369458,0.104551046
411.104,0.455522972,0.230295567,0.105781058
411.112,0.462365591,0.230295567,0.10701107
411.12,0.470185728,0.235221675,0.108241082
411.128,0.479960899,0.235221675,0.109471095
411.136,0.491691105,0.240147783,0.110701107
411.144,0.505376344,0.235221675,0.111931119
411.152,0.519061584,0.359605911,0.113161132
411.16,0.532746823,0.52955665,0.114391144
411.168,0.545454545,0.594827586,0.115621156
411.176,0.557184751,0.509852217,0.116851169
411.184,0.567937439,0.390394089,0.118081181
411.192,0.576735093,0.330049261,0.119311193
411.2,0.58455523,0.295566502,0.120541205
411.208,0.590420332,0.245073892,0.120541205
411.216,0.593352884,0.199507389,0.120541205
411.224,0.596285435,0.174876847,0.119311193
411.232,0.598240469,0.169950739,0.119311193
411.24,0.598240469,0.169950739,0.118081181
411.248,0.597262952,0.169950739,0.118081181
411.256,0.594330401,0.165024631,0.118081181
411.264,0.591397849,0.160098522,0.118081181
411.272,0.587487781,0.160098522,0.118081181
411.28,0.583577713,0.160098522,0.118081181
411.288,0.579667644,0.165024631,0.116851169
411.296,0.575757576,0.165024631,0.116851169
411.304,0.571847507,0.165024631,0.115621156
411.312,0.568914956,0.160098522,0.115621156
411.32,0.565004888,0.155172414,0.115621156
411.328,0.561094819,0.145320197,0.116851169
411.336,0.557184751,0.140394089,0.116851169
411.344,0.554252199,0.145320197,0.118081181
411.352,0.551319648,0.160098522,0.119311193
411.36,0.54740958,0.169950739,0.120541205
411.368,0.543499511,0.189655172,0.121771218
411.376,0.54056696,0.210591133,0.12300123
411.384,0.535679374,0.230295567,0.124231242
411.392,0.529814272,0.245073892,0.125461255
411.4,0.524926686,0.254926108,0.126691267
411.408,0.521016618,0.259852217,0.127921279
411.416,0.518084066,0.259852217,0.129151292
411.424,0.514173998,0.259852217,0.130381304
411.432,0.51026393,0.254926108,0.131611316
411.44,0.506353861,0.240147783,0.132841328
411.448,0.502443793,0.230295567,0.132841328
411.456,0.498533724,0.215517241,0.134071341
411.464,0.494623656,0.204433498,0.135301353
411.472,0.490713587,0.189655172,0.136531365
411.48,0.486803519,0.169950739,0.136531365
411.488,0.483870968,0.155172414,0.137761378
411.496,0.480938416,0.150246305,0.13899139
411.504,0.478005865,0.155172414,0.140221402
411.512,0.475073314,0.160098522,0.140221402
411.52,0.47311828,0.160098522,0.141451415
411.528,0.469208211,0.160098522,0.143911439
411.536,0.46627566,0.160098522,0.145141451
411.544,0.463343109,0.165024631,0.147601476
411.552,0.460410557,0.169950739,0.150061501
411.56,0.457478006,0.169950739,0.152521525
411.568,0.454545455,0.174876847,0.153751538
411.576,0.451612903,0.174876847,0.156211562
411.584,0.449657869,0.169950739,0.158671587
411.592,0.447702835,0.165024631,0.161131611
411.6,0.445747801,0.160098522,0.163591636
411.608,0.444770283,0.160098522,0.167281673
411.616,0.443792766,0.150246305,0.172201722
411.624,0.444770283,0.140394089,0.175891759
411.632,0.445747801,0.125615764,0.180811808
411.64,0.447702835,0.109605911,0.184501845
411.648,0.449657869,0.109605911,0.189421894
411.656,0.45259042,0.11453202,0.194341943
411.664,0.456500489,0.119458128,0.199261993
411.672,0.461388074,0.130541872,0.205412054
411.68,0.468230694,0.140394089,0.210332103
411.688,0.476050831,0.140394089,0.215252153
411.696,0.485826002,0.145320197,0.221402214
411.704,0.49657869,0.150246305,0.226322263
411.712,0.506353861,0.155172414,0.231242312
411.72,0.515151515,0.160098522,0.234932349
411.728,0.523949169,0.165024631,0.239852399
411.736,0.53372434,0.160098522,0.243542435
411.744,0.542521994,0.169950739,0.248462485
411.752,0.551319648,0.27955665,0.252152522
411.76,0.559139785,0.439655172,0.255842558
411.768,0.565982405,0.495073892,0.258302583
411.776,0.57086999,0.424876847,0.26199262
411.784,0.573802542,0.339901478,0.264452645
411.792,0.575757576,0.284482759,0.266912669
411.8,0.575757576,0.230295567,0.268142681
411.808,0.574780059,0.155172414,0.270602706
411.816,0.573802542,0.089901478,0.273062731
411.824,0.571847507,0.065270936,0.275522755
411.832,0.569892473,0.060344828,0.279212792
411.84,0.566959922,0.060344828,0.281672817
411.848,0.563049853,0.060344828,0.285362854
411.856,0.559139785,0.065270936,0.289052891
411.864,0.554252199,0.075123153,0.292742927
411.872,0.549364614,0.080049261,0.296432964
411.88,0.545454545,0.084975369,0.300123001
411.888,0.541544477,0.089901478,0.303813038
411.896,0.537634409,0.094827586,0.307503075
411.904,0.534701857,0.094827586,0.312423124
411.912,0.532746823,0.094827586,0.317343173
411.92,0.529814272,0.084975369,0.322263223
411.928,0.52688172,0.080049261,0.327183272
411.936,0.522971652,0.075123153,0.332103321
411.944,0.520039101,0.075123153,0.33702337
411.952,0.517106549,0.075123153,0.343173432
411.96,0.514173998,0.094827586,0.348093481
411.968,0.51026393,0.119458128,0.35301353
411.976,0.507331378,0.145320197,0.357933579
411.984,0.50342131,0.165024631,0.362853629
411.992,0.500488759,0.184729064,0.367773678
412,0.498533724,0.199507389,0.372693727
412.008,0.49657869,0.215517241,0.376383764
412.016,0.494623656,0.230295567,0.381303813
412.024,0.493646139,0.240147783,0.386223862
412.032,0.492668622,0.240147783,0.389913899
412.04,0.492668622,0.235221675,0.393603936
412.048,0.490713587,0.230295567,0.397293973
412.056,0.487781036,0.215517241,0.399753998
412.064,0.484848485,0.204433498,0.402214022
412.072,0.480938416,0.199507389,0.404674047
412.08,0.478005865,0.194581281,0.405904059
412.088,0.475073314,0.189655172,0.407134071
412.096,0.472140762,0.189655172,0.408364084
412.104,0.470185728,0.189655172,0.408364084
412.112,0.468230694,0.204433498,0.409594096
412.12,0.46627566,0.225369458,0.408364084
412.128,0.465298143,0.235221675,0.408364084
412.136,0.463343109,0.245073892,0.407134071
412.144,0.462365591,0.25,0.404674047
412.152,0.462365591,0.254926108,0.402214022
412.16,0.461388074,0.264778325,0.399753998
412.168,0.460410557,0.274630542,0.397293973
412.176,0.45943304,0.284482759,0.394833948
412.184,0.458455523,0.289408867,0.392373924
412.192,0.456500489,0.300492611,0.389913899
412.2,0.454545455,0.305418719,0.386223862
412.208,0.453567937,0.310344828,0.383763838
412.216,0.45259042,0.310344828,0.381303813
412.224,0.450635386,0.310344828,0.378843788
412.232,0.449657869,0.315270936,0.375153752
412.24,0.450635386,0.315270936,0.372693727
412.248,0.45259042,0.315270936,0.370233702
412.256,0.455522972,0.315270936,0.367773678
412.264,0.460410557,0.315270936,0.365313653
412.272,0.46627566,0.315270936,0.362853629
412.28,0.475073314,0.315270936,0.361623616
412.288,0.484848485,0.315270936,0.359163592
412.296,0.494623656,0.325123153,0.356703567
412.304,0.506353861,0.330049261,0.354243542
412.312,0.516129032,0.334975369,0.350553506
412.32,0.523949169,0.339901478,0.346863469
412.328,0.534701857,0.349753695,0.341943419
412.336,0.545454545,0.36453202,0.33702337
412.344,0.555229717,0.369458128,0.330873309
412.352,0.56402737,0.375615764,0.32595326
412.36,0.571847507,0.380541872,0.319803198
412.368,0.576735093,0.380541872,0.313653137
412.376,0.580645161,0.38546798,0.307503075
412.384,0.582600196,0.38546798,0.301353014
412.392,0.583577713,0.390394089,0.292742927
412.4,0.583577713,0.395320197,0.284132841
412.408,0.583577713,0.395320197,0.274292743
412.416,0.582600196,0.400246305,0.264452645
412.424,0.579667644,0.405172414,0.254612546
412.432,0.57771261,0.410098522,0.244772448
412.44,0.573802542,0.405172414,0.234932349
412.448,0.569892473,0.405172414,0.225092251
412.456,0.56402737,0.415024631,0.21402214
412.464,0.559139785,0.419950739,0.204182042
412.472,0.554252199,0.424876847,0.191881919
412.48,0.548387097,0.429802956,0.179581796
412.488,0.542521994,0.424876847,0.168511685
412.496,0.537634409,0.424876847,0.156211562
412.504,0.532746823,0.424876847,0.145141451
412.512,0.527859238,0.419950739,0.134071341
412.52,0.522971652,0.419950739,0.125461255
412.528,0.519061584,0.424876847,0.115621156
412.536,0.515151515,0.434729064,0.108241082
412.544,0.51026393,0.444581281,0.099630996
412.552,0.506353861,0.439655172,0.093480935
412.56,0.501466276,0.514778325,0.087330873
412.568,0.49657869,0.684729064,0.081180812
412.576,0.492668622,0.815270936,0.076260763
412.584,0.488758553,0.820197044,0.071340713
412.592,0.484848485,0.669950739,0.067650677
412.6,0.480938416,0.584975369,0.065190652
412.608,0.478005865,0.539408867,0.062730627
412.616,0.475073314,0.485221675,0.061500615
412.624,0.472140762,0.415024631,0.05904059
412.632,0.468230694,0.380541872,0.057810578
412.64,0.465298143,0.36453202,0.056580566
412.648,0.462365591,0.36453202,0.055350554
412.656,0.460410557,0.36453202,0.054120541
412.664,0.458455523,0.369458128,0.054120541
412.672,0.456500489,0.375615764,0.052890529
412.68,0.454545455,0.380541872,0.052890529
412.688,0.45259042,0.38546798,0.052890529
412.696,0.451612903,0.390394089,0.052890529
412.704,0.449657869,0.390394089,0.052890529
412.712,0.448680352,0.390394089,0.052890529
412.72,0.448680352,0.390394089,0.054120541
412.728,0.448680352,0.395320197,0.054120541
412.736,0.447702835,0.410098522,0.054120541
412.744,0.446725318,0.415024631,0.054120541
412.752,0.445747801,0.424876847,0.055350554
412.76,0.443792766,0.429802956,0.055350554
412.768,0.441837732,0.434729064,0.056580566
412.776,0.439882698,0.439655172,0.057810578
412.784,0.437927664,0.449507389,0.057810578
412.792,0.434017595,0.465517241,0.057810578
412.8,0.431085044,0.485221675,0.05904059
412.808,0.427174976,0.495073892,0.05904059
412.816,0.425219941,0.504926108,0.05904059
412.824,0.423264907,0.514778325,0.05904059
412.832,0.421309873,0.519704433,0.05904059
412.84,0.420332356,0.514778325,0.05904059
412.848,0.417399804,0.5,0.05904059
412.856,0.41544477,0.495073892,0.05904059
412.864,0.411534702,0.480295567,0.05904059
412.872,0.408602151,0.460591133,0.057810578
412.88,0.405669599,0.460591133,0.057810578
412.888,0.403714565,0.460591133,0.056580566
412.896,0.402737048,0.47044335,0.055350554
412.904,0.401759531,0.475369458,0.054120541
412.912,0.401759531,0.475369458,0.052890529
412.92,0.402737048,0.47044335,0.052890529
412.928,0.402737048,0.47044335,0.051660517
412.936,0.402737048,0.47044335,0.051660517
412.944,0.402737048,0.475369458,0.050430504
412.952,0.402737048,0.475369458,0.050430504
412.96,0.402737048,0.47044335,0.049200492
412.968,0.402737048,0.460591133,0.049200492
412.976,0.402737048,0.460591133,0.049200492
412.984,0.402737048,0.449507389,0.049200492
412.992,0.402737048,0.434729064,0.04797048
413,0.402737048,0.424876847,0.04797048
413.008,0.402737048,0.415024631,0.049200492
413.016,0.403714565,0.405172414,0.049200492
413.024,0.403714565,0.400246305,0.050430504
413.032,0.404692082,0.400246305,0.051660517
413.04,0.404692082,0.405172414,0.052890529
413.048,0.405669599,0.410098522,0.055350554
413.056,0.407624633,0.410098522,0.057810578
413.064,0.409579668,0.410098522,0.060270603
413.072,0.414467253,0.405172414,0.061500615
413.08,0.421309873,0.400246305,0.06396064
413.088,0.42913001,0.395320197,0.066420664
413.096,0.438905181,0.395320197,0.067650677
413.104,0.449657869,0.400246305,0.070110701
413.112,0.45943304,0.400246305,0.071340713
413.12,0.472140762,0.400246305,0.073800738
413.128,0.485826002,0.400246305,0.07503075
413.136,0.499511241,0.400246305,0.076260763
413.144,0.513196481,0.400246305,0.076260763
413.152,0.525904203,0.390394089,0.077490775
413.16,0.536656891,0.38546798,0.077490775
413.168,0.54740958,0.375615764,0.078720787
413.176,0.557184751,0.380541872,0.078720787
413.184,0.565982405,0.38546798,0.078720787
413.192,0.571847507,0.38546798,0.078720787
413.2,0.576735093,0.38546798,0.077490775
413.208,0.57771261,0.390394089,0.077490775
413.216,0.578690127,0.395320197,0.076260763
413.224,0.578690127,0.400246305,0.07503075
413.232,0.576735093,0.400246305,0.07503075
413.24,0.575757576,0.400246305,0.07503075
413.248,0.573802542,0.405172414,0.07503075
413.256,0.571847507,0.405172414,0.07503075
413.264,0.57086999,0.400246305,0.076260763
413.272,0.568914956,0.395320197,0.076260763
413.28,0.566959922,0.390394089,0.077490775
413.288,0.565004888,0.38546798,0.078720787
413.296,0.563049853,0.380541872,0.0799508
413.304,0.560117302,0.375615764,0.082410824
413.312,0.557184751,0.369458128,0.084870849
413.32,0.553274682,0.369458128,0.087330873
413.328,0.550342131,0.369458128,0.089790898
413.336,0.546432063,0.369458128,0.092250923
413.344,0.543499511,0.380541872,0.094710947
413.352,0.541544477,0.390394089,0.097170972
413.36,0.539589443,0.38546798,0.100861009
413.368,0.537634409,0.390394089,0.103321033
413.376,0.534701857,0.485221675,0.10701107
413.384,0.531769306,0.665024631,0.110701107
413.392,0.528836755,0.769704433,0.114391144
413.4,0.52688172,0.715517241,0.118081181
413.408,0.524926686,0.599753695,0.121771218
413.416,0.522971652,0.524630542,0.125461255
413.424,0.521016618,0.480295567,0.129151292
413.432,0.519061584,0.419950739,0.132841328
413.44,0.518084066,0.354679803,0.136531365
413.448,0.517106549,0.320197044,0.141451415
413.456,0.517106549,0.295566502,0.145141451
413.464,0.517106549,0.284482759,0.148831488
413.472,0.519061584,0.274630542,0.153751538
413.48,0.521016618,0.269704433,0.157441574
413.488,0.522971652,0.259852217,0.161131611
413.496,0.524926686,0.264778325,0.164821648
413.504,0.525904203,0.27955665,0.168511685
413.512,0.52688172,0.295566502,0.172201722
413.52,0.529814272,0.315270936,0.175891759
413.528,0.53372434,0.325123153,0.179581796
413.536,0.539589443,0.339901478,0.183271833
413.544,0.550342131,0.349753695,0.18696187
413.552,0.565982405,0.359605911,0.190651907
413.56,0.588465298,0.369458128,0.194341943
413.568,0.619745846,0.38546798,0.19803198
413.576,0.660801564,0.390394089,0.201722017
413.584,0.708699902,0.400246305,0.205412054
413.592,0.764418377,0.405172414,0.209102091
413.6,0.823069404,0.410098522,0.212792128
413.608,0.87487781,0.415024631,0.216482165
413.616,0.921798631,0.419950739,0.220172202
413.624,0.960899316,0.415024631,0.222632226
413.632,0.980449658,0.405172414,0.226322263
413.64,0.990224829,0.400246305,0.2300123
413.648,0.995112414,0.400246305,0.232472325
413.656,0.998044966,0.405172414,0.234932349
413.664,0.999022483,0.395320197,0.238622386
413.672,1,0.38546798,0.241082411
413.68,1,0.375615764,0.243542435
413.688,1,0.36453202,0.244772448
413.696,1,0.359605911,0.24600246
413.704,1,0.359605911,0.247232472
413.712,1,0.359605911,0.248462485
413.72,1,0.354679803,0.249692497
413.728,1,0.349753695,0.250922509
413.736,1,0.339901478,0.250922509
413.744,1,0.325123153,0.252152522
413.752,1,0.305418719,0.252152522
413.76,1,0.284482759,0.252152522
413.768,1,0.274630542,0.250922509
413.776,1,0.259852217,0.250922509
413.784,1,0.245073892,0.248462485
413.792,1,0.240147783,0.247232472
413.8,1,0.240147783,0.24600246
413.808,1,0.240147783,0.244772448
413.816,1,0.240147783,0.243542435
413.824,1,0.235221675,0.242312423
413.832,1,0.230295567,0.239852399
413.84,1,0.225369458,0.238622386
413.848,1,0.225369458,0.237392374
413.856,1,0.230295567,0.234932349
413.864,1,0.230295567,0.233702337
413.872,1,0.235221675,0.231242312
413.88,1,0.240147783,0.228782288
413.888,1,0.240147783,0.227552276
413.896,1,0.240147783,0.225092251
413.904,1,0.230295567,0.222632226
413.912,1,0.215517241,0.220172202
413.92,1,0.230295567,0.217712177
413.928,1,0.349753695,0.21402214
413.936,1,0.514778325,0.210332103
413.944,1,0.555418719,0.204182042
413.952,1,0.47044335,0.199261993
413.96,1,0.36453202,0.194341943
413.968,1,0.310344828,0.189421894
413.976,1,0.274630542,0.183271833
413.984,1,0.22044335,0.178351784
413.992,1,0.174876847,0.173431734
414,1,0.150246305,0.167281673
414.008,1,0.140394089,0.161131611
414.016,1,0.130541872,0.153751538
414.024,1,0.125615764,0.148831488
414.032,1,0.125615764,0.142681427
414.04,1,0.130541872,0.136531365
414.048,1,0.140394089,0.131611316
414.056,1,0.140394089,0.126691267
414.064,1,0.140394089,0.121771218
414.072,1,0.13546798,0.118081181
414.08,1,0.125615764,0.113161132
414.088,1,0.119458128,0.110701107
414.096,1,0.119458128,0.108241082
414.104,1,0.130541872,0.10701107
414.112,1,0.150246305,0.10701107
414.12,1,0.165024631,0.10701107
414.128,1,0.179802956,0.108241082
414.136,1,0.189655172,0.109471095
414.144,1,0.204433498,0.111931119
414.152,1,0.22044335,0.115621156
414.16,1,0.240147783,0.119311193
414.168,1,0.254926108,0.124231242
414.176,1,0.269704433,0.130381304
414.184,1,0.274630542,0.135301353
414.192,1,0.274630542,0.140221402
414.2,1,0.259852217,0.146371464
414.208,1,0.245073892,0.151291513
414.216,1,0.225369458,0.157441574
414.224,1,0.204433498,0.163591636
414.232,1,0.194581281,0.17097171
414.24,1,0.184729064,0.178351784
414.248,1,0.174876847,0.184501845
414.256,0.997067449,0.169950739,0.191881919
414.264,0.979472141,0.169950739,0.196801968
414.272,0.945259042,0.169950739,0.20295203
414.28,0.902248289,0.165024631,0.209102091
414.288,0.854349951,0.165024631,0.21402214
414.296,0.804496579,0.174876847,0.217712177
414.304,0.759530792,0.184729064,0.222632226
414.312,0.716520039,0.189655172,0.226322263
414.32,0.669599218,0.194581281,0.231242312
414.328,0.622678397,0.189655172,0.234932349
414.336,0.57771261,0.184729064,0.238622386
414.344,0.534701857,0.179802956,0.241082411
414.352,0.494623656,0.174876847,0.244772448
414.36,0.457478006,0.174876847,0.248462485
414.368,0.423264907,0.169950739,0.250922509
414.376,0.389051808,0.160098522,0.254612546
414.384,0.356793744,0.150246305,0.258302583
414.392,0.324535679,0.145320197,0.26199262
414.4,0.2971652,0.145320197,0.265682657
414.408,0.27370479,0.145320197,0.269372694
414.416,0.248289345,0.145320197,0.273062731
414.424,0.221896383,0.150246305,0.276752768
414.432,0.195503421,0.155172414,0.281672817
414.44,0.171065494,0.160098522,0.284132841
414.448,0.146627566,0.155172414,0.287822878
414.456,0.124144673,0.160098522,0.290282903
414.464,0.10459433,0.160098522,0.292742927
414.472,0.08797654,0.165024631,0.295202952
414.48,0.075268817,0.165024631,0.297662977
414.488,0.065493646,0.174876847,0.301353014
414.496,0.057673509,0.184729064,0.303813038
414.504,0.054740958,0.189655172,0.306273063
414.512,0.053763441,0.194581281,0.308733087
414.52,0.05083089,0.189655172,0.311193112
414.528,0.046920821,0.184729064,0.313653137
414.536,0.041055718,0.235221675,0.316113161
414.544,0.035190616,0.38546798,0.318573186
414.552,0.027370479,0.509852217,0.32103321
414.56,0.018572825,0.519704433,0.323493235
414.568,0.010752688,0.415024631,0.327183272
414.576,0.004887586,0.349753695,0.329643296
414.584,0.001955034,0.310344828,0.332103321
414.592,0.000977517,0.245073892,0.334563346
414.6,0,0.165024631,0.33702337
414.608,0,0.119458128,0.339483395
414.616,0,0.104679803,0.341943419
414.624,0,0.104679803,0.344403444
414.632,0,0.104679803,0.348093481
414.64,0,0.104679803,0.351783518
414.648,0,0.109605911,0.355473555
414.656,0,0.11453202,0.360393604
414.664,0,0.125615764,0.364083641
414.672,0,0.140394089,0.367773678
414.68,0,0.150246305,0.371463715
414.688,0,0.160098522,0.375153752
414.696,0,0.169950739,0.378843788
414.704,0,0.174876847,0.382533825
414.712,0,0.184729064,0.387453875
414.72,0,0.189655172,0.392373924
414.728,0,0.210591133,0.397293973
414.736,0,0.230295567,0.402214022
414.744,0,0.254926108,0.405904059
414.752,0,0.284482759,0.410824108
414.76,0,0.320197044,0.414514145
414.768,0,0.359605911,0.419434194
414.776,0,0.405172414,0.423124231
414.784,0,0.439655172,0.426814268
414.792,0.000977517,0.475369458,0.429274293
414.8,0.005865103,0.509852217,0.43296433
414.808,0.012707722,0.534482759,0.435424354
414.816,0.017595308,0.565270936,0.437884379
414.824,0.023460411,0.580049261,0.440344403
414.832,0.028347996,0.599753695,0.442804428
414.84,0.033235582,0.624384236,0.44403444
414.848,0.038123167,0.669950739,0.445264453
414.856,0.043010753,0.725369458,0.445264453
414.864,0.047898338,0.805418719,0.446494465
414.872,0.052785924,0.910098522,0.445264453
414.88,0.058651026,1.070197044,0.445264453
414.888,0.065493646,1.130541872,0.44403444
414.896,0.071358749,1.130541872,0.441574416
414.904,0.078201369,1.130541872,0.439114391
414.912,0.085043988,1.130541872,0.436654367
414.92,0.089931574,1.130541872,0.434194342
414.928,0.093841642,1.130541872,0.431734317
414.936,0.097751711,1.130541872,0.429274293
414.944,0.101661779,1.130541872,0.426814268
414.952,0.105571848,1.130541872,0.423124231
414.96,0.109481916,1.130541872,0.420664207
414.968,0.114369501,1.130541872,0.418204182
414.976,0.119257087,1.130541872,0.415744157
414.984,0.124144673,1.130541872,0.412054121
414.992,0.128054741,1.130541872,0.409594096
415,0.132942326,1.130541872,0.407134071
415.008,0.137829912,1.130541872,0.404674047
415.016,0.142717498,0.655172414,0.402214022
415.024,0.147605083,-0.129310345,0.399753998
415.032,0.153470186,-0.129310345,0.397293973
415.04,0.160312805,-0.129310345,0.396063961
415.048,0.168132942,-0.129310345,0.394833948
415.056,0.176930596,-0.129310345,0.392373924
415.064,0.186705767,-0.129310345,0.391143911
415.072,0.197458456,-0.129310345,0.389913899
415.08,0.211143695,-0.129310345,0.387453875
415.088,0.225806452,-0.129310345,0.383763838
415.096,0.240469208,-0.129310345,0.378843788
415.104,0.255131965,-0.129310345,0.373923739
415.112,0.268817204,-0.129310345,0.361623616
415.12,0.283479961,-0.129310345,0.348093481
415.128,0.298142717,-0.129310345,0.328413284
415.136,0.31085044,-0.129310345,0.3099631
415.144,0.324535679,-0.129310345,0.286592866
415.152,0.337243402,-0.129310345,0.264452645
415.16,0.348973607,-0.129310345,0.237392374
415.168,0.358748778,-0.129310345,0.211562116
415.176,0.366568915,-0.129310345,0.177121771
415.184,0.373411535,-0.129310345,0.143911439
415.192,0.37829912,-0.129310345,0.104551046
415.2,0.381231672,-0.129310345,0.066420664
415.208,0.384164223,-0.129310345,0.034440344
415.216,0.38514174,-0.129310345,0.003690037
415.224,0.386119257,-0.129310345,-0.019680197
415.232,0.38514174,-0.129310345,-0.041820418
415.24,0.38514174,-0.129310345,-0.051660517
415.248,0.384164223,-0.129310345,-0.062730627
415.256,0.383186706,-0.129310345,-0.060270603
415.264,0.383186706,-0.129310345,-0.057810578
415.272,0.382209189,-0.129310345,-0.035670357
415.28,0.382209189,-0.129310345,-0.012300123
415.288,0.381231672,-0.129310345,0.027060271
415.296,0.380254154,-0.129310345,0.065190652
415.304,0.380254154,-0.129310345,0.109471095
415.312,0.380254154,-0.129310345,0.152521525
415.32,0.379276637,-0.129310345,0.199261993
415.328,0.379276637,-0.094827586,0.24600246
415.336,0.37829912,-0.039408867,0.300123001
415.344,0.377321603,0.024630542,0.35301353
415.352,0.376344086,0.089901478,0.409594096
415.36,0.374389052,0.155172414,0.466174662
415.368,0.372434018,0.210591133,0.514145141
415.376,0.3714565,0.254926108,0.563345633
415.384,0.369501466,0.284482759,0.603936039
415.392,0.367546432,0.300492611,0.643296433
415.4,0.365591398,0.320197044,0.671586716
415.408,0.364613881,0.339901478,0.699876999
415.416,0.363636364,0.36453202,0.717097171
415.424,0.360703812,0.395320197,0.735547355
415.432,0.357771261,0.419950739,0.73800738
415.44,0.355816227,0.439655172,0.741697417
415.448,0.353861193,0.454433498,0.734317343
415.456,0.351906158,0.460591133,0.726937269
415.464,0.349951124,0.460591133,0.714637146
415.472,0.34799609,0.449507389,0.702337023
415.48,0.346041056,0.434729064,0.686346863
415.488,0.345063539,0.415024631,0.670356704
415.496,0.344086022,0.405172414,0.648216482
415.504,0.344086022,0.405172414,0.626076261
415.512,0.345063539,0.405172414,0.600246002
415.52,0.345063539,0.410098522,0.574415744
415.528,0.345063539,0.429802956,0.547355474
415.536,0.344086022,0.449507389,0.521525215
415.544,0.342130987,0.465517241,0.495694957
415.552,0.340175953,0.475369458,0.469864699
415.56,0.338220919,0.480295567,0.44895449
415.568,0.335288368,0.480295567,0.426814268
415.576,0.333333333,0.485221675,0.409594096
415.584,0.332355816,0.490147783,0.392373924
415.592,0.333333333,0.495073892,0.377613776
415.6,0.33431085,0.495073892,0.362853629
415.608,0.362658847,0.495073892,0.350553506
415.616,0.401759531,0.5,0.338253383
415.624,0.42228739,0.5,0.328413284
415.632,0.433040078,0.495073892,0.318573186
415.64,0.437927664,0.480295567,0.311193112
415.648,0.441837732,0.47044335,0.30504305
415.656,0.443792766,0.475369458,0.298892989
415.664,0.444770283,0.480295567,0.292742927
415.672,0.445747801,0.485221675,0.289052891
415.68,0.446725318,0.495073892,0.284132841
415.688,0.447702835,0.580049261,0.279212792
415.696,0.448680352,0.759852217,0.275522755
415.704,0.449657869,0.895320197,0.270602706
415.712,0.450635386,0.859605911,0.265682657
415.72,0.451612903,0.75,0.26199262
415.728,0.451612903,0.679802956,0.257072571
415.736,0.45259042,0.655172414,0.253382534
415.744,0.45259042,0.61453202,0.249692497
415.752,0.45259042,0.560344828,0.244772448
415.76,0.45259042,0.534482759,0.241082411
415.768,0.45259042,0.524630542,0.237392374
415.776,0.45259042,0.524630542,0.232472325
415.784,0.45259042,0.519704433,0.228782288
415.792,0.45259042,0.509852217,0.225092251
415.8,0.45259042,0.509852217,0.221402214
415.808,0.451612903,0.509852217,0.217712177
415.816,0.451612903,0.509852217,0.215252153
415.824,0.450635386,0.509852217,0.212792128
415.832,0.449657869,0.514778325,0.210332103
415.84,0.448680352,0.514778325,0.207872079
415.848,0.448680352,0.524630542,0.207872079
415.856,0.447702835,0.524630542,0.207872079
415.864,0.447702835,0.52955665,0.207872079
415.872,0.446725318,0.52955665,0.209102091
415.88,0.446725318,0.524630542,0.210332103
415.888,0.446725318,0.524630542,0.211562116
415.896,0.445747801,0.524630542,0.212792128
415.904,0.445747801,0.52955665,0.21402214
415.912,0.444770283,0.539408867,0.215252153
415.92,0.444770283,0.539408867,0.216482165
415.928,0.443792766,0.545566502,0.218942189
415.936,0.443792766,0.545566502,0.220172202
415.944,0.443792766,0.539408867,0.221402214
415.952,0.442815249,0.534482759,0.222632226
415.96,0.442815249,0.539408867,0.223862239
415.968,0.442815249,0.539408867,0.225092251
415.976,0.442815249,0.534482759,0.223862239
415.984,0.441837732,0.519704433,0.223862239
415.992,0.441837732,0.509852217,0.222632226
416,0.441837732,0.495073892,0.220172202
416.008,0.441837732,0.475369458,0.216482165
416.016,0.441837732,0.47044335,0.21402214
416.024,0.440860215,0.47044335,0.209102091
416.032,0.440860215,0.475369458,0.204182042
416.04,0.439882698,0.480295567,0.19803198
416.048,0.439882698,0.475369458,0.193111931
416.056,0.438905181,0.460591133,0.18696187
416.064,0.438905181,0.454433498,0.18204182
416.072,0.437927664,0.444581281,0.175891759
416.08,0.437927664,0.429802956,0.169741697
416.088,0.437927664,0.410098522,0.163591636
416.096,0.437927664,0.444581281,0.158671587
416.104,0.437927664,0.594827586,0.152521525
416.112,0.437927664,0.75,0.147601476
416.12,0.437927664,0.764778325,0.142681427
416.128,0.437927664,0.570197044,0.136531365
416.136,0.437927664,0.460591133,0.131611316
416.144,0.438905181,0.405172414,0.125461255
416.152,0.438905181,0.339901478,0.119311193
416.16,0.438905181,0.274630542,0.113161132
416.168,0.439882698,0.235221675,0.108241082
416.176,0.439882698,0.210591133,0.102091021
416.184,0.440860215,0.199507389,0.097170972
416.192,0.440860215,0.194581281,0.093480935
416.2,0.441837732,0.194581281,0.088560886
416.208,0.442815249,0.204433498,0.084870849
416.216,0.442815249,0.215517241,0.082410824
416.224,0.443792766,0.22044335,0.078720787
416.232,0.445747801,0.225369458,0.076260763
416.24,0.446725318,0.225369458,0.072570726
416.248,0.447702835,0.225369458,0.070110701
416.256,0.449657869,0.225369458,0.067650677
416.264,0.450635386,0.235221675,0.065190652
416.272,0.451612903,0.245073892,0.062730627
416.28,0.453567937,0.259852217,0.061500615
416.288,0.454545455,0.269704433,0.05904059
416.296,0.455522972,0.27955665,0.057810578
416.304,0.456500489,0.295566502,0.056580566
416.312,0.457478006,0.320197044,0.055350554
416.32,0.458455523,0.349753695,0.054120541
416.328,0.45943304,0.369458128,0.054120541
416.336,0.45943304,0.38546798,0.054120541
416.344,0.45943304,0.390394089,0.054120541
416.352,0.460410557,0.390394089,0.054120541
416.36,0.460410557,0.38546798,0.055350554
416.368,0.460410557,0.38546798,0.056580566
416.376,0.460410557,0.390394089,0.05904059
416.384,0.460410557,0.400246305,0.061500615
416.392,0.45943304,0.405172414,0.06396064
416.4,0.45943304,0.415024631,0.067650677
416.408,0.45943304,0.424876847,0.072570726
416.416,0.45943304,0.424876847,0.077490775
416.424,0.458455523,0.424876847,0.082410824
416.432,0.458455523,0.424876847,0.087330873
416.44,0.457478006,0.424876847,0.092250923
416.448,0.457478006,0.424876847,0.098400984
416.456,0.457478006,0.424876847,0.104551046
416.464,0.456500489,0.424876847,0.110701107
416.472,0.456500489,0.429802956,0.118081181
416.48,0.455522972,0.419950739,0.125461255
416.488,0.455522972,0.415024631,0.132841328
416.496,0.454545455,0.410098522,0.140221402
416.504,0.454545455,0.405172414,0.146371464
416.512,0.454545455,0.38546798,0.153751538
416.52,0.453567937,0.369458128,0.159901599
416.528,0.453567937,0.36453202,0.164821648
416.536,0.45259042,0.36453202,0.169741697
416.544,0.45259042,0.359605911,0.173431734
416.552,0.45259042,0.354679803,0.177121771
416.56,0.45259042,0.354679803,0.180811808
416.568,0.451612903,0.359605911,0.184501845
416.576,0.451612903,0.359605911,0.188191882
416.584,0.450635386,0.359605911,0.190651907
416.592,0.450635386,0.36453202,0.193111931
416.6,0.450635386,0.354679803,0.195571956
416.608,0.450635386,0.349753695,0.196801968
416.616,0.450635386,0.344827586,0.199261993
416.624,0.450635386,0.339901478,0.200492005
416.632,0.450635386,0.344827586,0.201722017
416.64,0.450635386,0.359605911,0.20295203
416.648,0.450635386,0.36453202,0.20295203
416.656,0.451612903,0.369458128,0.20295203
416.664,0.451612903,0.369458128,0.20295203
416.672,0.45259042,0.36453202,0.20295203
416.68,0.45259042,0.349753695,0.201722017
416.688,0.45259042,0.344827586,0.201722017
416.696,0.45259042,0.339901478,0.201722017
416.704,0.45259042,0.339901478,0.201722017
416.712,0.45259042,0.344827586,0.200492005
416.72,0.45259042,0.349753695,0.200492005
416.728,0.45259042,0.354679803,0.200492005
416.736,0.45259042,0.359605911,0.200492005
416.744,0.45259042,0.369458128,0.200492005
416.752,0.45259042,0.36453202,0.200492005
416.76,0.45259042,0.375615764,0.200492005
416.768,0.45259042,0.480295567,0.200492005
416.776,0.451612903,0.645320197,0.201722017
416.784,0.451612903,0.709359606,0.20295203
416.792,0.451612903,0.640394089,0.206642066
416.8,0.451612903,0.545566502,0.209102091
416.808,0.450635386,0.490147783,0.21402214
416.816,0.450635386,0.449507389,0.220172202
416.824,0.450635386,0.380541872,0.226322263
416.832,0.449657869,0.325123153,0.233702337
416.84,0.449657869,0.289408867,0.241082411
416.848,0.448680352,0.269704433,0.248462485
416.856,0.448680352,0.259852217,0.255842558
416.864,0.447702835,0.245073892,0.264452645
416.872,0.447702835,0.230295567,0.274292743
416.88,0.447702835,0.225369458,0.284132841
416.888,0.447702835,0.225369458,0.296432964
416.896,0.447702835,0.230295567,0.307503075
416.904,0.447702835,0.230295567,0.318573186
416.912,0.447702835,0.230295567,0.329643296
416.92,0.446725318,0.230295567,0.340713407
416.928,0.446725318,0.230295567,0.351783518
416.936,0.446725318,0.240147783,0.362853629
416.944,0.446725318,0.240147783,0.375153752
416.952,0.446725318,0.235221675,0.387453875
416.96,0.446725318,0.240147783,0.399753998
416.968,0.446725318,0.259852217,0.410824108
416.976,0.446725318,0.27955665,0.423124231
416.984,0.446725318,0.300492611,0.435424354
416.992,0.446725318,0.305418719,0.446494465
417,0.446725318,0.315270936,0.456334563
417.008,0.445747801,0.325123153,0.466174662
417.016,0.445747801,0.330049261,0.474784748
417.024,0.445747801,0.330049261,0.482164822
417.032,0.445747801,0.330049261,0.489544895
417.04,0.444770283,0.330049261,0.495694957
417.048,0.444770283,0.325123153,0.501845018
417.056,0.444770283,0.315270936,0.509225092
417.064,0.444770283,0.300492611,0.514145141
417.072,0.444770283,0.295566502,0.520295203
417.08,0.444770283,0.289408867,0.525215252
417.088,0.445747801,0.284482759,0.531365314
417.096,0.445747801,0.284482759,0.535055351
417.104,0.445747801,0.284482759,0.5399754
417.112,0.445747801,0.284482759,0.543665437
417.12,0.445747801,0.27955665,0.548585486
417.128,0.445747801,0.274630542,0.552275523
417.136,0.445747801,0.259852217,0.557195572
417.144,0.445747801,0.254926108,0.562115621
417.152,0.445747801,0.25,0.56703567
417.16,0.445747801,0.245073892,0.570725707
417.168,0.445747801,0.240147783,0.575645756
417.176,0.445747801,0.235221675,0.579335793
417.184,0.445747801,0.230295567,0.58302583
417.192,0.445747801,0.22044335,0.587945879
417.2,0.446725318,0.210591133,0.592865929
417.208,0.446725318,0.204433498,0.59901599
417.216,0.446725318,0.194581281,0.603936039
417.224,0.446725318,0.189655172,0.610086101
417.232,0.446725318,0.184729064,0.61500615
417.24,0.446725318,0.189655172,0.619926199
417.248,0.447702835,0.194581281,0.626076261
417.256,0.447702835,0.204433498,0.632226322
417.264,0.447702835,0.204433498,0.638376384
417.272,0.448680352,0.204433498,0.645756458
417.28,0.448680352,0.204433498,0.654366544
417.288,0.449657869,0.194581281,0.661746617
417.296,0.450635386,0.184729064,0.670356704
417.304,0.451612903,0.174876847,0.677736777
417.312,0.45259042,0.169950739,0.686346863
417.32,0.453567937,0.169950739,0.693726937
417.328,0.455522972,0.169950739,0.701107011
417.336,0.456500489,0.160098522,0.707257073
417.344,0.457478006,0.150246305,0.713407134
417.352,0.45943304,0.145320197,0.718327183
417.36,0.460410557,0.140394089,0.724477245
417.368,0.461388074,0.130541872,0.729397294
417.376,0.462365591,0.130541872,0.735547355
417.384,0.463343109,0.130541872,0.739237392
417.392,0.463343109,0.13546798,0.744157442
417.4,0.464320626,0.145320197,0.747847478
417.408,0.464320626,0.155172414,0.751537515
417.416,0.464320626,0.165024631,0.75399754
417.424,0.465298143,0.169950739,0.757687577
417.432,0.465298143,0.169950739,0.760147601
417.44,0.465298143,0.165024631,0.762607626
417.448,0.465298143,0.160098522,0.765067651
417.456,0.465298143,0.155172414,0.767527675
417.464,0.464320626,0.150246305,0.768757688
417.472,0.464320626,0.199507389,0.771217712
417.48,0.464320626,0.359605911,0.772447724
417.488,0.464320626,0.514778325,0.773677737
417.496,0.463343109,0.539408867,0.774907749
417.504,0.463343109,0.454433498,0.776137761
417.512,0.463343109,0.380541872,0.776137761
417.52,0.463343109,0.339901478,0.777367774
417.528,0.462365591,0.284482759,0.778597786
417.536,0.462365591,0.215517241,0.778597786
417.544,0.462365591,0.169950739,0.778597786
417.552,0.462365591,0.160098522,0.778597786
417.56,0.462365591,0.160098522,0.777367774
417.568,0.461388074,0.165024631,0.776137761
417.576,0.461388074,0.174876847,0.774907749
417.584,0.461388074,0.189655172,0.772447724
417.592,0.461388074,0.210591133,0.768757688
417.6,0.461388074,0.225369458,0.766297663
417.608,0.460410557,0.240147783,0.761377614
417.616,0.460410557,0.25,0.757687577
417.624,0.460410557,0.245073892,0.751537515
417.632,0.460410557,0.240147783,0.746617466
417.64,0.460410557,0.245073892,0.740467405
417.648,0.460410557,0.25,0.735547355
417.656,0.484848485,0.254926108,0.729397294
417.664,0.521016618,0.269704433,0.723247232
417.672,0.538611926,0.284482759,0.715867159
417.68,0.545454545,0.300492611,0.708487085
417.688,0.548387097,0.310344828,0.699876999
417.696,0.549364614,0.325123153,0.691266913
417.704,0.549364614,0.339901478,0.682656827
417.712,0.54740958,0.349753695,0.67404674
417.72,0.545454545,0.359605911,0.665436654
417.728,0.543499511,0.36453202,0.656826568
417.736,0.541544477,0.369458128,0.645756458
417.744,0.539589443,0.375615764,0.635916359
417.752,0.536656891,0.369458128,0.623616236
417.76,0.534701857,0.354679803,0.612546125
417.768,0.532746823,0.334975369,0.600246002
417.776,0.530791789,0.315270936,0.589175892
417.784,0.529814272,0.295566502,0.576875769
417.792,0.527859238,0.27955665,0.564575646
417.8,0.52688172,0.269704433,0.553505535
417.808,0.525904203,0.269704433,0.542435424
417.816,0.524926686,0.274630542,0.531365314
417.824,0.523949169,0.284482759,0.521525215
417.832,0.521994135,0.284482759,0.510455105
417.84,0.521016618,0.289408867,0.499384994
417.848,0.519061584,0.289408867,0.488314883
417.856,0.516129032,0.284482759,0.477244772
417.864,0.514173998,0.284482759,0.466174662
417.872,0.512218964,0.284482759,0.455104551
417.88,0.51026393,0.284482759,0.445264453
417.888,0.509286413,0.284482759,0.435424354
417.896,0.508308895,0.289408867,0.424354244
417.904,0.507331378,0.289408867,0.414514145
417.912,0.506353861,0.289408867,0.403444034
417.92,0.506353861,0.27955665,0.392373924
417.928,0.506353861,0.274630542,0.381303813
417.936,0.507331378,0.264778325,0.371463715
417.944,0.508308895,0.254926108,0.361623616
417.952,0.509286413,0.25,0.351783518
417.96,0.509286413,0.25,0.344403444
417.968,0.51026393,0.254926108,0.335793358
417.976,0.51026393,0.259852217,0.329643296
417.984,0.51026393,0.264778325,0.322263223
417.992,0.511241447,0.264778325,0.316113161
418,0.513196481,0.259852217,0.3099631
418.008,0.515151515,0.254926108,0.303813038
418.016,0.519061584,0.254926108,0.297662977
418.024,0.522971652,0.259852217,0.291512915
418.032,0.528836755,0.264778325,0.286592866
418.04,0.534701857,0.269704433,0.281672817
418.048,0.54056696,0.274630542,0.276752768
418.056,0.546432063,0.27955665,0.271832718
418.064,0.552297165,0.27955665,0.265682657
418.072,0.558162268,0.274630542,0.260762608
418.08,0.56402737,0.325123153,0.254612546
418.088,0.568914956,0.485221675,0.248462485
418.096,0.573802542,0.624384236,0.242312423
418.104,0.575757576,0.645320197,0.236162362
418.112,0.57771261,0.514778325,0.2300123
418.12,0.578690127,0.444581281,0.223862239
418.128,0.578690127,0.424876847,0.218942189
418.136,0.57771261,0.390394089,0.21402214
418.144,0.576735093,0.334975369,0.209102091
418.152,0.575757576,0.295566502,0.204182042
418.16,0.573802542,0.284482759,0.200492005
418.168,0.571847507,0.289408867,0.196801968
418.176,0.569892473,0.300492611,0.193111931
418.184,0.567937439,0.305418719,0.190651907
418.192,0.565004888,0.320197044,0.18696187
418.2,0.563049853,0.334975369,0.185731857
418.208,0.561094819,0.344827586,0.183271833
418.216,0.559139785,0.349753695,0.183271833
418.224,0.557184751,0.359605911,0.184501845
418.232,0.554252199,0.36453202,0.185731857
418.24,0.552297165,0.36453202,0.18696187
418.248,0.550342131,0.359605911,0.189421894
418.256,0.548387097,0.349753695,0.191881919
418.264,0.546432063,0.354679803,0.195571956
418.272,0.544477028,0.375615764,0.19803198
418.28,0.543499511,0.38546798,0.200492005
418.288,0.542521994,0.400246305,0.204182042
418.296,0.54056696,0.419950739,0.206642066
418.304,0.539589443,0.444581281,0.209102091
418.312,0.537634409,0.475369458,0.210332103
418.32,0.536656891,0.5,0.212792128
418.328,0.534701857,0.519704433,0.21402214
418.336,0.532746823,0.52955665,0.216482165
418.344,0.530791789,0.534482759,0.217712177
418.352,0.528836755,0.539408867,0.218942189
418.36,0.525904203,0.534482759,0.218942189
418.368,0.522971652,0.524630542,0.220172202
418.376,0.519061584,0.509852217,0.220172202
418.384,0.516129032,0.495073892,0.220172202
418.392,0.514173998,0.475369458,0.220172202
418.4,0.512218964,0.460591133,0.220172202
418.408,0.51026393,0.444581281,0.218942189
418.416,0.508308895,0.434729064,0.217712177
418.424,0.506353861,0.429802956,0.216482165
418.432,0.505376344,0.429802956,0.215252153
418.44,0.50342131,0.429802956,0.212792128
418.448,0.500488759,0.434729064,0.210332103
418.456,0.497556207,0.444581281,0.206642066
418.464,0.493646139,0.444581281,0.204182042
418.472,0.48973607,0.449507389,0.200492005
418.48,0.485826002,0.454433498,0.19803198
418.488,0.481915934,0.454433498,0.194341943
418.496,0.478983382,0.449507389,0.190651907
418.504,0.477028348,0.444581281,0.18696187
418.512,0.476050831,0.434729064,0.183271833
418.52,0.475073314,0.429802956,0.179581796
418.528,0.475073314,0.415024631,0.177121771
418.536,0.475073314,0.410098522,0.173431734
418.544,0.475073314,0.395320197,0.169741697
418.552,0.475073314,0.380541872,0.164821648
418.56,0.475073314,0.359605911,0.161131611
418.568,0.475073314,0.349753695,0.156211562
418.576,0.475073314,0.339901478,0.152521525
418.584,0.475073314,0.334975369,0.150061501
418.592,0.476050831,0.330049261,0.146371464
418.6,0.478005865,0.325123153,0.143911439
418.608,0.480938416,0.339901478,0.141451415
418.616,0.483870968,0.449507389,0.13899139
418.624,0.488758553,0.630541872,0.136531365
418.632,0.494623656,0.694581281,0.132841328
418.64,0.500488759,0.609605911,0.130381304
418.648,0.506353861,0.5,0.127921279
418.656,0.513196481,0.439655172,0.125461255
418.664,0.519061584,0.405172414,0.121771218
418.672,0.524926686,0.339901478,0.119311193
418.68,0.531769306,0.289408867,0.118081181
418.688,0.537634409,0.264778325,0.115621156
418.696,0.541544477,0.254926108,0.113161132
418.704,0.545454545,0.245073892,0.110701107
418.712,0.548387097,0.240147783,0.108241082
418.72,0.551319648,0.240147783,0.105781058
418.728,0.553274682,0.240147783,0.104551046
418.736,0.553274682,0.245073892,0.104551046
418.744,0.553274682,0.254926108,0.104551046
418.752,0.551319648,0.264778325,0.105781058
418.76,0.548387097,0.269704433,0.108241082
418.768,0.546432063,0.27955665,0.110701107
418.776,0.543499511,0.289408867,0.113161132
418.784,0.541544477,0.300492611,0.116851169
418.792,0.539589443,0.305418719,0.120541205
418.8,0.538611926,0.315270936,0.125461255
418.808,0.537634409,0.325123153,0.131611316
418.816,0.536656891,0.334975369,0.137761378
418.824,0.535679374,0.344827586,0.143911439
418.832,0.53372434,0.36453202,0.150061501
418.84,0.532746823,0.380541872,0.156211562
418.848,0.531769306,0.38546798,0.162361624
418.856,0.529814272,0.38546798,0.169741697
418.864,0.528836755,0.390394089,0.175891759
418.872,0.527859238,0.38546798,0.183271833
418.88,0.525904203,0.380541872,0.189421894
418.888,0.523949169,0.369458128,0.195571956
418.896,0.521994135,0.36453202,0.201722017
418.904,0.520039101,0.359605911,0.207872079
418.912,0.518084066,0.359605911,0.21402214
418.92,0.515151515,0.359605911,0.218942189
418.928,0.513196481,0.369458128,0.223862239
418.936,0.511241447,0.380541872,0.228782288
418.944,0.51026393,0.390394089,0.233702337
418.952,0.509286413,0.400246305,0.237392374
418.96,0.507331378,0.410098522,0.241082411
418.968,0.506353861,0.415024631,0.244772448
418.976,0.505376344,0.410098522,0.248462485
418.984,0.50342131,0.405172414,0.250922509
418.992,0.502443793,0.395320197,0.254612546
419,0.501466276,0.380541872,0.257072571
419.008,0.499511241,0.359605911,0.260762608
419.016,0.498533724,0.400246305,0.264452645
419.024,0.49657869,0.565270936,0.266912669
419.032,0.494623656,0.730295567,0.270602706
419.04,0.492668622,0.759852217,0.274292743
419.048,0.490713587,0.650246305,0.27798278
419.056,0.48973607,0.584975369,0.281672817
419.064,0.487781036,0.534482759,0.284132841
419.072,0.486803519,0.460591133,0.287822878
419.08,0.485826002,0.375615764,0.290282903
419.088,0.484848485,0.325123153,0.292742927
419.096,0.483870968,0.305418719,0.295202952
419.104,0.483870968,0.305418719,0.298892989
419.112,0.484848485,0.315270936,0.300123001
419.12,0.484848485,0.320197044,0.302583026
419.128,0.485826002,0.325123153,0.303813038
419.136,0.487781036,0.325123153,0.30504305
419.144,0.490713587,0.330049261,0.30504305
419.152,0.493646139,0.320197044,0.30504305
419.16,0.498533724,0.305418719,0.303813038
419.168,0.504398827,0.295566502,0.302583026
419.176,0.509286413,0.289408867,0.298892989
419.184,0.515151515,0.284482759,0.296432964
419.192,0.520039101,0.27955665,0.292742927
419.2,0.523949169,0.27955665,0.289052891
419.208,0.528836755,0.284482759,0.282902829
419.216,0.532746823,0.300492611,0.27798278
419.224,0.537634409,0.325123153,0.271832718
419.232,0.541544477,0.349753695,0.265682657
419.24,0.544477028,0.369458128,0.259532595
419.248,0.546432063,0.38546798,0.253382534
419.256,0.548387097,0.410098522,0.247232472
419.264,0.549364614,0.429802956,0.241082411
419.272,0.550342131,0.444581281,0.234932349
419.28,0.550342131,0.444581281,0.228782288
419.288,0.550342131,0.434729064,0.222632226
419.296,0.549364614,0.419950739,0.216482165
419.304,0.548387097,0.405172414,0.211562116
419.312,0.546432063,0.380541872,0.206642066
419.32,0.544477028,0.36453202,0.204182042
419.328,0.543499511,0.354679803,0.201722017
419.336,0.541544477,0.344827586,0.200492005
419.344,0.539589443,0.339901478,0.199261993
419.352,0.538611926,0.339901478,0.199261993
419.36,0.537634409,0.344827586,0.200492005
419.368,0.536656891,0.349753695,0.20295203
419.376,0.535679374,0.359605911,0.205412054
419.384,0.535679374,0.369458128,0.209102091
419.392,0.534701857,0.380541872,0.21402214
419.4,0.534701857,0.38546798,0.217712177
419.408,0.53372434,0.390394089,0.222632226
419.416,0.532746823,0.390394089,0.227552276
419.424,0.531769306,0.400246305,0.232472325
419.432,0.529814272,0.390394089,0.237392374
419.44,0.528836755,0.375615764,0.243542435
419.448,0.52688172,0.390394089,0.249692497
419.456,0.525904203,0.5,0.255842558
419.464,0.523949169,0.660098522,0.26199262
419.472,0.522971652,0.709359606,0.266912669
419.48,0.521994135,0.640394089,0.271832718
419.488,0.521016618,0.550492611,0.276752768
419.496,0.520039101,0.495073892,0.281672817
419.504,0.520039101,0.434729064,0.286592866
419.512,0.520039101,0.359605911,0.291512915
419.52,0.520039101,0.305418719,0.295202952
419.528,0.520039101,0.27955665,0.298892989
419.536,0.520039101,0.274630542,0.302583026
419.544,0.521016618,0.27955665,0.30504305
419.552,0.522971652,0.289408867,0.308733087
419.56,0.524926686,0.300492611,0.3099631
419.568,0.52688172,0.305418719,0.311193112
419.576,0.530791789,0.305418719,0.311193112
419.584,0.53372434,0.310344828,0.311193112
419.592,0.536656891,0.305418719,0.308733087
419.6,0.539589443,0.300492611,0.307503075
419.608,0.541544477,0.289408867,0.303813038
419.616,0.544477028,0.27955665,0.300123001
419.624,0.546432063,0.27955665,0.295202952
419.632,0.548387097,0.274630542,0.291512915
419.64,0.550342131,0.259852217,0.286592866
419.648,0.551319648,0.25,0.281672817
419.656,0.552297165,0.25,0.274292743
419.664,0.552297165,0.269704433,0.266912669
419.672,0.552297165,0.289408867,0.257072571
419.68,0.551319648,0.310344828,0.247232472
419.688,0.550342131,0.325123153,0.234932349
419.696,0.549364614,0.330049261,0.222632226
419.704,0.543499511,0.334975369,0.207872079
419.712,0.536656891,0.334975369,0.194341943
419.72,0.530791789,0.334975369,0.179581796
419.728,0.52688172,0.325123153,0.166051661
419.736,0.522971652,0.320197044,0.152521525
419.744,0.519061584,0.305418719,0.13899139
419.752,0.516129032,0.284482759,0.125461255
419.76,0.512218964,0.264778325,0.111931119
419.768,0.508308895,0.240147783,0.099630996
419.776,0.504398827,0.215517241,0.086100861
419.784,0.500488759,0.189655172,0.076260763
419.792,0.497556207,0.179802956,0.065190652
419.8,0.494623656,0.174876847,0.057810578
419.808,0.490713587,0.189655172,0.049200492
419.816,0.486803519,0.194581281,0.043050431
419.824,0.483870968,0.199507389,0.036900369
419.832,0.481915934,0.199507389,0.03198032
419.84,0.479960899,0.199507389,0.027060271
419.848,0.478005865,0.204433498,0.023370234
419.856,0.476050831,0.215517241,0.019680197
419.864,0.474095797,0.225369458,0.01599016
419.872,0.472140762,0.230295567,0.012300123
419.88,0.471163245,0.235221675,0.009840098
419.888,0.469208211,0.240147783,0.007380074
419.896,0.468230694,0.230295567,0.006150062
419.904,0.467253177,0.22044335,0.004920049
419.912,0.465298143,0.210591133,0.003690037
419.92,0.463343109,0.194581281,0.002460025
419.928,0.461388074,0.184729064,0.001230012
419.936,0.45943304,0.174876847,0.001230012
419.944,0.458455523,0.165024631,0.001230012
419.952,0.458455523,0.160098522,0.001230012
419.96,0.461388074,0.27955665,0.001230012
419.968,0.465298143,0.460591133,0.002460025
419.976,0.470185728,0.539408867,0.003690037
419.984,0.477028348,0.485221675,0.003690037
419.992,0.482893451,0.38546798,0.003690037
420,0.48973607,0.330049261,0.004920049
420.008,0.498533724,0.284482759,0.004920049
420.016,0.508308895,0.22044335,0.003690037
420.024,0.518084066,0.165024631,0.002460025
420.032,0.524926686,0.130541872,0.001230012
420.04,0.531769306,0.119458128,0.001230012
420.048,0.537634409,0.11453202,0
420.056,0.544477028,0.109605911,-0.001230012
420.064,0.550342131,0.109605911,-0.001230012
420.072,0.555229717,0.109605911,-0.001230012
420.08,0.558162268,0.109605911,-0.001230012
420.088,0.560117302,0.104679803,-0.001230012
420.096,0.562072336,0.099753695,-0.001230012
420.104,0.56402737,0.094827586,0
420.112,0.565004888,0.084975369,0.001230012
420.12,0.56402737,0.084975369,0.003690037
420.128,0.563049853,0.084975369,0.006150062
420.136,0.560117302,0.089901478,0.011070111
420.144,0.556207234,0.104679803,0.017220172
420.152,0.551319648,0.125615764,0.025830258
420.16,0.546432063,0.140394089,0.033210332
420.168,0.541544477,0.155172414,0.045510455
420.176,0.536656891,0.179802956,0.056580566
420.184,0.53372434,0.204433498,0.070110701
420.192,0.530791789,0.22044335,0.084870849
420.2,0.528836755,0.225369458,0.098400984
420.208,0.52688172,0.230295567,0.111931119
420.216,0.524926686,0.215517241,0.125461255
420.224,0.523949169,0.210591133,0.13899139
420.232,0.521016618,0.194581281,0.152521525
420.24,0.519061584,0.184729064,0.166051661
420.248,0.515151515,0.169950739,0.180811808
420.256,0.512218964,0.150246305,0.195571956
420.264,0.508308895,0.140394089,0.207872079
420.272,0.504398827,0.13546798,0.220172202
420.28,0.500488759,0.145320197,0.231242312
420.288,0.497556207,0.150246305,0.241082411
420.296,0.494623656,0.155172414,0.250922509
420.304,0.490713587,0.155172414,0.259532595
420.312,0.486803519,0.160098522,0.268142681
420.32,0.482893451,0.165024631,0.275522755
420.328,0.478005865,0.165024631,0.281672817
420.336,0.474095797,0.165024631,0.289052891
420.344,0.469208211,0.160098522,0.292742927
420.352,0.464320626,0.150246305,0.297662977
420.36,0.45943304,0.140394089,0.300123001
420.368,0.454545455,0.119458128,0.303813038
420.376,0.450635386,0.130541872,0.30504305
420.384,0.448680352,0.25,0.306273063
420.392,0.446725318,0.429802956,0.307503075
420.4,0.445747801,0.485221675,0.307503075
420.408,0.443792766,0.395320197,0.307503075
420.416,0.441837732,0.27955665,0.307503075
420.424,0.439882698,0.22044335,0.307503075
420.432,0.438905181,0.179802956,0.307503075
420.44,0.436950147,0.125615764,0.306273063
420.448,0.436950147,0.075123153,0.306273063
420.456,0.437927664,0.050492611,0.306273063
420.464,0.439882698,0.040640394,0.306273063
420.472,0.443792766,0.040640394,0.30504305
420.48,0.450635386,0.034482759,0.30504305
420.488,0.458455523,0.034482759,0.306273063
420.496,0.465298143,0.040640394,0.306273063
420.504,0.474095797,0.040640394,0.306273063
420.512,0.484848485,0.040640394,0.307503075
420.52,0.49657869,0.045566502,0.308733087
420.528,0.508308895,0.050492611,0.3099631
420.536,0.521016618,0.050492611,0.311193112
420.544,0.531769306,0.050492611,0.312423124
420.552,0.542521994,0.050492611,0.314883149
420.56,0.553274682,0.050492611,0.317343173
420.568,0.563049853,0.050492611,0.319803198
420.576,0.57086999,0.050492611,0.322263223
420.584,0.57771261,0.065270936,0.324723247
420.592,0.581622678,0.080049261,0.327183272
420.6,0.583577713,0.099753695,0.329643296
420.608,0.58455523,0.11453202,0.332103321
420.616,0.583577713,0.125615764,0.334563346
420.624,0.580645161,0.130541872,0.338253383
420.632,0.575757576,0.130541872,0.341943419
420.64,0.57086999,0.125615764,0.345633456
420.648,0.565004888,0.119458128,0.350553506
420.656,0.560117302,0.109605911,0.355473555
420.664,0.555229717,0.104679803,0.360393604
420.672,0.551319648,0.099753695,0.366543665
420.68,0.54740958,0.094827586,0.371463715
420.688,0.543499511,0.094827586,0.377613776
420.696,0.538611926,0.094827586,0.382533825
420.704,0.534701857,0.094827586,0.388683887
420.712,0.529814272,0.084975369,0.396063961
420.72,0.525904203,0.075123153,0.402214022
420.728,0.521994135,0.065270936,0.409594096
420.736,0.518084066,0.065270936,0.418204182
420.744,0.514173998,0.065270936,0.426814268
420.752,0.509286413,0.060344828,0.434194342
420.76,0.504398827,0.055418719,0.442804428
420.768,0.499511241,0.125615764,0.452644526
420.776,0.495601173,0.300492611,0.462484625
420.784,0.491691105,0.424876847,0.473554736
420.792,0.487781036,0.375615764,0.484624846
420.8,0.484848485,0.245073892,0.496924969
420.808,0.481915934,0.155172414,0.511685117
420.816,0.478983382,0.11453202,0.526445264
420.824,0.477028348,0.065270936,0.543665437
420.832,0.474095797,0.014778325,0.559655597
420.84,0.471163245,-0.019704433,0.575645756
420.848,0.469208211,-0.044334975,0.591635916
420.856,0.467253177,-0.050492611,0.608856089
420.864,0.465298143,-0.055418719,0.624846248
420.872,0.464320626,-0.055418719,0.644526445
420.88,0.463343109,-0.055418719,0.664206642
420.888,0.464320626,-0.050492611,0.686346863
420.896,0.46627566,-0.039408867,0.709717097
420.904,0.469208211,-0.02955665,0.730627306
420.912,0.47311828,-0.024630542,0.752767528
420.92,0.478983382,-0.014778325,0.773677737
420.928,0.485826002,-0.014778325,0.793357934
420.936,0.493646139,-0.009852217,0.816728167
420.944,0.501466276,-0.004926108,0.838868389
420.952,0.51026393,0.009852217,0.862238622
420.96,0.518084066,0.019704433,0.886838868
420.968,0.524926686,0.02955665,0.911439114
420.976,0.530791789,0.045566502,0.934809348
420.984,0.534701857,0.060344828,0.958179582
420.992,0.537634409,0.080049261,0.981549815
421,0.537634409,0.089901478,1.001230012
421.008,0.537634409,0.094827586,1.020910209
421.016,0.535679374,0.099753695,1.038130381
421.024,0.534701857,0.099753695,1.054120541
421.032,0.532746823,0.084975369,1.067650677
421.04,0.530791789,0.084975369,1.081180812
421.048,0.527859238,0.084975369,1.093480935
421.056,0.524926686,0.089901478,1.104551046
421.064,0.521994135,0.089901478,1.113161132
421.072,0.518084066,0.099753695,1.121771218
421.08,0.514173998,0.109605911,1.125461255
421.088,0.511241447,0.119458128,1.129151292
421.096,0.507331378,0.125615764,1.129151292
421.104,0.50342131,0.130541872,1.129151292
421.112,0.499511241,0.140394089,1.129151292
421.12,0.494623656,0.145320197,1.129151292
421.128,0.48973607,0.145320197,1.129151292
421.136,0.485826002,0.150246305,1.129151292
421.144,0.481915934,0.155172414,1.129151292
421.152,0.478005865,0.155172414,1.129151292
421.16,0.474095797,0.150246305,1.129151292
421.168,0.471163245,0.150246305,1.129151292
421.176,0.469208211,0.145320197,1.129151292
421.184,0.46627566,0.140394089,1.129151292
421.192,0.464320626,0.130541872,1.129151292
421.2,0.462365591,0.130541872,1.129151292
421.208,0.461388074,0.13546798,1.129151292
421.216,0.45943304,0.145320197,1.129151292
421.224,0.457478006,0.160098522,1.129151292
421.232,0.455522972,0.165024631,1.129151292
421.24,0.453567937,0.174876847,1.129151292
421.248,0.45259042,0.179802956,1.129151292
421.256,0.45259042,0.184729064,1.129151292
421.264,0.45259042,0.184729064,1.129151292
421.272,0.454545455,0.194581281,1.129151292
421.28,0.456500489,0.199507389,1.129151292
421.288,0.45943304,0.204433498,1.129151292
421.296,0.463343109,0.215517241,1.129151292
421.304,0.468230694,0.230295567,1.129151292
421.312,0.47311828,0.235221675,1.129151292
421.32,0.478983382,0.245073892,1.129151292
421.328,0.484848485,0.25,1.129151292
421.336,0.48973607,0.254926108,1.129151292
421.344,0.49657869,0.264778325,1.129151292
421.352,0.50342131,0.274630542,1.129151292
421.36,0.511241447,0.284482759,1.129151292
421.368,0.518084066,0.295566502,1.129151292
421.376,0.524926686,0.310344828,1.129151292
421.384,0.528836755,0.330049261,1.129151292
421.392,0.530791789,0.339901478,1.129151292
421.4,0.532746823,0.339901478,1.129151292
421.408,0.532746823,0.334975369,1.129151292
421.416,0.531769306,0.334975369,1.129151292
421.424,0.529814272,0.330049261,1.129151292
421.432,0.52688172,0.325123153,1.129151292
421.44,0.522971652,0.400246305,1.129151292
421.448,0.519061584,0.565270936,1.129151292
421.456,0.514173998,0.694581281,1.129151292
421.464,0.509286413,0.709359606,1.129151292
421.472,0.50342131,0.63546798,1.129151292
421.48,0.499511241,0.580049261,1.129151292
421.488,0.495601173,0.52955665,1.129151292
421.496,0.492668622,0.454433498,1.129151292
421.504,0.488758553,0.375615764,1.129151292
421.512,0.484848485,0.344827586,1.129151292
421.52,0.480938416,0.344827586,1.129151292
421.528,0.477028348,0.344827586,1.129151292
421.536,0.474095797,0.344827586,1.129151292
421.544,0.471163245,0.344827586,1.129151292
421.552,0.469208211,0.349753695,1.129151292
421.56,0.467253177,0.349753695,1.129151292
421.568,0.465298143,0.36453202,1.129151292
421.576,0.463343109,0.380541872,1.129151292
421.584,0.462365591,0.38546798,1.129151292
421.592,0.460410557,0.390394089,1.129151292
421.6,0.45943304,0.390394089,1.129151292
421.608,0.457478006,0.390394089,1.129151292
421.616,0.455522972,0.400246305,1.129151292
421.624,0.453567937,0.405172414,1.129151292
421.632,0.451612903,0.405172414,1.129151292
421.64,0.449657869,0.410098522,1.129151292
421.648,0.447702835,0.419950739,1.129151292
421.656,0.445747801,0.444581281,1.129151292
421.664,0.443792766,0.47044335,1.129151292
421.672,0.441837732,0.495073892,1.129151292
421.68,0.439882698,0.509852217,1.129151292
421.688,0.438905181,0.524630542,1.129151292
421.696,0.436950147,0.539408867,1.129151292
421.704,0.43597263,0.550492611,1.129151292
421.712,0.434995112,0.555418719,1.129151292
421.72,0.434017595,0.555418719,1.129151292
421.728,0.433040078,0.550492611,1.129151292
421.736,0.432062561,0.545566502,1.129151292
421.744,0.431085044,0.539408867,1.129151292
421.752,0.424242424,0.534482759,1.129151292
421.76,0.413489736,0.52955665,1.129151292
421.768,0.406647116,0.519704433,1.129151292
421.776,0.402737048,0.509852217,1.129151292
421.784,0.399804497,0.490147783,1.129151292
421.792,0.397849462,0.475369458,1.129151292
421.8,0.395894428,0.47044335,1.129151292
421.808,0.392961877,0.454433498,1.129151292
421.816,0.39198436,0.449507389,1.129151292
421.824,0.390029326,0.449507389,1.129151292
421.832,0.389051808,0.454433498,1.129151292
421.84,0.388074291,0.454433498,1.129151292
421.848,0.387096774,0.454433498,1.129151292
421.856,0.386119257,0.454433498,1.129151292
421.864,0.384164223,0.449507389,1.129151292
421.872,0.384164223,0.449507389,1.129151292
421.88,0.383186706,0.454433498,1.129151292
421.888,0.383186706,0.460591133,1.129151292
421.896,0.383186706,0.460591133,1.129151292
421.904,0.383186706,0.465517241,1.129151292
421.912,0.383186706,0.465517241,1.129151292
421.92,0.384164223,0.465517241,1.129151292
421.928,0.386119257,0.47044335,1.129151292
421.936,0.390029326,0.465517241,1.129151292
421.944,0.394916911,0.460591133,1.129151292
421.952,0.402737048,0.460591133,1.129151292
421.96,0.412512219,0.454433498,1.129151292
421.968,0.425219941,0.454433498,1.129151292
421.976,0.438905181,0.460591133,1.129151292
421.984,0.45259042,0.47044335,1.129151292
421.992,0.46627566,0.475369458,1.129151292
422,0.482893451,0.485221675,1.129151292
422.008,0.499511241,0.490147783,1.129151292
422.016,0.517106549,0.485221675,1.129151292
422.024,0.53372434,0.534482759,1.129151292
422.032,0.549364614,0.694581281,1.129151292
422.04,0.563049853,0.844827586,1.129151292
422.048,0.574780059,0.86453202,1.129151292
422.056,0.58455523,0.764778325,1.129151292
422.064,0.592375367,0.694581281,1.129151292
422.072,0.596285435,0.650246305,1.129151292
422.08,0.598240469,0.580049261,1.129151292
422.088,0.599217986,0.504926108,1.129151292
422.096,0.598240469,0.460591133,1.129151292
422.104,0.596285435,0.434729064,1.129151292
422.112,0.592375367,0.429802956,1.129151292
422.12,0.588465298,0.424876847,1.129151292
422.128,0.583577713,0.429802956,1.129151292
422.136,0.579667644,0.439655172,1.129151292
422.144,0.574780059,0.454433498,1.129151292
422.152,0.568914956,0.460591133,1.129151292
422.16,0.563049853,0.460591133,1.129151292
422.168,0.557184751,0.454433498,1.129151292
422.176,0.550342131,0.460591133,1.129151292
422.184,0.544477028,0.460591133,1.129151292
422.192,0.538611926,0.465517241,1.129151292
422.2,0.532746823,0.475369458,1.129151292
422.208,0.52688172,0.490147783,1.129151292
422.216,0.521994135,0.5,1.129151292
422.224,0.517106549,0.509852217,1.129151292
422.232,0.512218964,0.514778325,1.129151292
422.24,0.508308895,0.519704433,1.129151292
422.248,0.50342131,0.534482759,1.129151292
422.256,0.498533724,0.545566502,1.129151292
422.264,0.493646139,0.555418719,1.127921279
422.272,0.48973607,0.560344828,1.125461255
422.28,0.484848485,0.570197044,1.113161132
422.288,0.480938416,0.584975369,1.100861009
422.296,0.477028348,0.589901478,1.088560886
422.304,0.47311828,0.584975369,1.077490775
422.312,0.468230694,0.575123153,1.065190652
