Time,PPG,ECG,resp
0,0.537634409,0.42578125,-0.029339853
0.008,0.534701857,0.404296875,-0.036674817
0.016,0.531769306,0.400390625,-0.04400978
0.024,0.528836755,0.400390625,-0.053789731
0.032,0.524926686,0.419921875,-0.061124694
0.04,0.520039101,0.42578125,-0.068459658
0.048,0.515151515,0.435546875,-0.073349633
0.056,0.509286413,0.42578125,-0.080684597
0.064,0.504398827,0.42578125,-0.085574572
0.072,0.500488759,0.419921875,-0.08801956
0.08,0.497556207,0.435546875,-0.092909535
0.088,0.495601173,0.42578125,-0.097799511
0.096,0.494623656,0.416015625,-0.100244499
0.104,0.494623656,0.39453125,-0.105134474
0.112,0.494623656,0.37109375,-0.107579462
0.12,0.495601173,0.365234375,-0.11002445
0.128,0.49657869,0.375,-0.114914425
0.136,0.497556207,0.380859375,-0.117359413
0.144,0.497556207,0.37109375,-0.119804401
0.152,0.495601173,0.39453125,-0.122249389
0.16,0.492668622,0.42578125,-0.124694377
0.168,0.488758553,0.44921875,-0.127139364
0.176,0.483870968,0.474609375,-0.129584352
0.184,0.476050831,0.494140625,-0.13202934
0.192,0.467253177,0.515625,-0.136919315
0.2,0.456500489,0.53515625,-0.139364303
0.208,0.444770283,0.5390625,-0.141809291
0.216,0.433040078,0.5390625,-0.144254279
0.224,0.421309873,0.5390625,-0.149144254
0.232,0.411534702,0.529296875,-0.151589242
0.24,0.401759531,0.51953125,-0.15403423
0.248,0.392961877,0.515625,-0.156479218
0.256,0.386119257,0.51953125,-0.158924205
0.264,0.380254154,0.509765625,-0.161369193
0.272,0.375366569,0.5,-0.166259169
0.28,0.370478983,0.529296875,-0.168704156
0.288,0.365591398,0.490234375,-0.171149144
0.296,0.361681329,0.470703125,-0.173594132
0.304,0.357771261,0.494140625,-0.17603912
0.312,0.35483871,0.509765625,-0.178484108
0.32,0.352883675,0.51953125,-0.180929095
0.328,0.350928641,0.53515625,-0.180929095
0.336,0.349951124,0.5390625,-0.183374083
0.344,0.348973607,0.529296875,-0.185819071
0.352,0.348973607,0.51953125,-0.188264059
0.36,0.34799609,0.51953125,-0.188264059
0.368,0.34799609,0.51953125,-0.190709046
0.376,0.34799609,0.509765625,-0.193154034
0.384,0.346041056,0.509765625,-0.193154034
0.392,0.345063539,0.505859375,-0.195599022
0.4,0.344086022,0.515625,-0.195599022
0.408,0.342130987,0.470703125,-0.19804401
0.416,0.339198436,0.490234375,-0.200488998
0.424,0.337243402,0.515625,-0.202933985
0.432,0.336265885,0.525390625,-0.205378973
0.44,0.335288368,0.494140625,-0.207823961
0.448,0.337243402,0.48046875,-0.210268949
0.456,0.340175953,0.470703125,-0.212713936
0.464,0.345063539,0.494140625,-0.215158924
0.472,0.351906158,0.515625,-0.217603912
0.48,0.360703812,0.53515625,-0.2200489
0.488,0.372434018,0.5546875,-0.2200489
0.496,0.386119257,0.544921875,-0.222493888
0.504,0.401759531,0.5390625,-0.224938875
0.512,0.419354839,0.525390625,-0.224938875
0.52,0.436950147,0.5,-0.227383863
0.528,0.455522972,0.490234375,-0.227383863
0.536,0.475073314,0.494140625,-0.229828851
0.544,0.493646139,0.484375,-0.229828851
0.552,0.512218964,0.46484375,-0.232273839
0.56,0.529814272,0.474609375,-0.232273839
0.568,0.543499511,0.46484375,-0.232273839
0.576,0.556207234,0.44921875,-0.232273839
0.584,0.568914956,0.515625,-0.232273839
0.592,0.581622678,0.779296875,-0.232273839
0.6,0.592375367,1.16015625,-0.232273839
0.608,0.601173021,1.18359375,-0.229828851
0.616,0.607038123,0.830078125,-0.227383863
0.624,0.608993157,0.560546875,-0.227383863
0.632,0.60801564,0.42578125,-0.224938875
0.64,0.603128055,0.416015625,-0.222493888
0.648,0.596285435,0.470703125,-0.2200489
0.656,0.587487781,0.46484375,-0.2200489
0.664,0.57771261,0.505859375,-0.215158924
0.672,0.568914956,0.474609375,-0.212713936
0.68,0.559139785,0.455078125,-0.207823961
0.688,0.550342131,0.439453125,-0.205378973
0.696,0.542521994,0.4609375,-0.200488998
0.704,0.536656891,0.470703125,-0.195599022
0.712,0.532746823,0.400390625,-0.193154034
0.72,0.529814272,0.4453125,-0.188264059
0.728,0.52688172,0.4609375,-0.183374083
0.736,0.523949169,0.419921875,-0.17603912
0.744,0.521994135,0.439453125,-0.168704156
0.752,0.518084066,0.419921875,-0.161369193
0.76,0.514173998,0.4296875,-0.15403423
0.768,0.509286413,0.400390625,-0.144254279
0.776,0.505376344,0.39453125,-0.134474328
0.784,0.500488759,0.404296875,-0.124694377
0.792,0.49657869,0.400390625,-0.114914425
0.8,0.493646139,0.380859375,-0.105134474
0.808,0.48973607,0.404296875,-0.095354523
0.816,0.485826002,0.490234375,-0.085574572
0.824,0.482893451,0.505859375,-0.073349633
0.832,0.478983382,0.470703125,-0.063569682
0.84,0.477028348,0.484375,-0.048899756
0.848,0.474095797,0.509765625,-0.036674817
0.856,0.471163245,0.560546875,-0.024449878
0.864,0.467253177,0.515625,-0.009779951
0.872,0.464320626,0.494140625,0.002444988
0.88,0.460410557,0.515625,0.014669927
0.888,0.456500489,0.544921875,0.031784841
0.896,0.450635386,0.529296875,0.046454768
0.904,0.443792766,0.509765625,0.063569682
0.912,0.436950147,0.5,0.080684597
0.92,0.42913001,0.494140625,0.100244499
0.928,0.421309873,0.505859375,0.119804401
0.936,0.414467253,0.484375,0.141809291
0.944,0.407624633,0.490234375,0.161369193
0.952,0.400782014,0.494140625,0.180929095
0.96,0.393939394,0.490234375,0.200488998
0.968,0.389051808,0.509765625,0.217603912
0.976,0.384164223,0.525390625,0.234718826
0.984,0.379276637,0.53515625,0.251833741
0.992,0.374389052,0.529296875,0.271393643
1,0.369501466,0.529296875,0.288508557
1.008,0.363636364,0.525390625,0.30806846
1.016,0.358748778,0.544921875,0.325183374
1.024,0.353861193,0.51953125,0.342298289
1.032,0.34799609,0.515625,0.356968215
1.04,0.343108504,0.529296875,0.371638142
1.048,0.337243402,0.515625,0.386308068
1.056,0.333333333,0.515625,0.400977995
1.064,0.330400782,0.505859375,0.413202934
1.072,0.327468231,0.505859375,0.427872861
1.08,0.323558162,0.505859375,0.442542787
1.088,0.320625611,0.505859375,0.454767726
1.096,0.316715543,0.494140625,0.466992665
1.104,0.312805474,0.484375,0.479217604
1.112,0.308895406,0.48046875,0.491442543
1.12,0.304985337,0.5,0.501222494
1.128,0.302052786,0.509765625,0.511002445
1.136,0.301075269,0.525390625,0.518337408
1.144,0.302052786,0.529296875,0.528117359
1.152,0.305962854,0.544921875,0.535452323
1.16,0.311827957,0.55078125,0.542787286
1.168,0.319648094,0.560546875,0.550122249
1.176,0.329423265,0.5390625,0.555012225
1.184,0.342130987,0.525390625,0.5599022
1.192,0.356793744,0.515625,0.564792176
1.2,0.372434018,0.494140625,0.567237164
1.208,0.388074291,0.484375,0.567237164
1.216,0.404692082,0.71484375,0.567237164
1.224,0.421309873,1.08984375,0.564792176
1.232,0.436950147,1.21875,0.562347188
1.24,0.45259042,0.958984375,0.557457213
1.248,0.467253177,0.640625,0.552567237
1.256,0.481915934,0.41015625,0.547677262
1.264,0.492668622,0.380859375,0.540342298
1.272,0.502443793,0.41015625,0.533007335
1.28,0.512218964,0.400390625,0.525672372
1.288,0.521994135,0.384765625,0.515892421
1.296,0.529814272,0.39453125,0.506112469
1.304,0.535679374,0.404296875,0.496332518
1.312,0.539589443,0.416015625,0.486552567
1.32,0.54056696,0.42578125,0.474327628
1.328,0.539589443,0.4453125,0.462102689
1.336,0.537634409,0.44921875,0.452322738
1.344,0.534701857,0.4609375,0.4400978
1.352,0.529814272,0.4453125,0.430317848
1.36,0.524926686,0.42578125,0.420537897
1.368,0.521016618,0.404296875,0.410757946
1.376,0.516129032,0.39453125,0.398533007
1.384,0.511241447,0.400390625,0.388753056
1.392,0.505376344,0.404296875,0.378973105
1.4,0.501466276,0.400390625,0.369193154
1.408,0.497556207,0.400390625,0.359413203
1.416,0.494623656,0.39453125,0.349633252
1.424,0.502443793,0.375,0.339853301
1.432,0.516129032,0.380859375,0.33007335
1.44,0.521016618,0.400390625,0.320293399
1.448,0.521994135,0.416015625,0.312958435
1.456,0.521016618,0.4296875,0.305623472
1.464,0.518084066,0.4609375,0.295843521
1.472,0.516129032,0.4609375,0.28606357
1.48,0.514173998,0.470703125,0.273838631
1.488,0.511241447,0.48046875,0.26405868
1.496,0.507331378,0.470703125,0.251833741
1.504,0.504398827,0.474609375,0.24205379
1.512,0.500488759,0.5,0.232273839
1.52,0.49657869,0.525390625,0.2200489
1.528,0.491691105,0.529296875,0.207823961
1.536,0.486803519,0.51953125,0.195599022
1.544,0.480938416,0.509765625,0.180929095
1.552,0.475073314,0.505859375,0.163814181
1.56,0.468230694,0.505859375,0.149144254
1.568,0.462365591,0.490234375,0.13202934
1.576,0.456500489,0.470703125,0.114914425
1.584,0.450635386,0.48046875,0.097799511
1.592,0.444770283,0.474609375,0.083129584
1.6,0.437927664,0.48046875,0.068459658
1.608,0.431085044,0.48046875,0.053789731
1.616,0.424242424,0.474609375,0.041564792
1.624,0.418377322,0.484375,0.026894866
1.632,0.412512219,0.474609375,0.012224939
1.64,0.408602151,0.494140625,0
1.648,0.403714565,0.505859375,-0.014669927
1.656,0.398826979,0.5,-0.026894866
1.664,0.394916911,0.494140625,-0.039119804
1.672,0.39198436,0.470703125,-0.048899756
1.68,0.388074291,0.470703125,-0.058679707
1.688,0.384164223,0.505859375,-0.070904645
1.696,0.380254154,0.529296875,-0.080684597
1.704,0.377321603,0.53515625,-0.090464548
1.712,0.374389052,0.53515625,-0.100244499
1.72,0.3714565,0.51953125,-0.11002445
1.728,0.370478983,0.509765625,-0.119804401
1.736,0.368523949,0.515625,-0.127139364
1.744,0.367546432,0.509765625,-0.134474328
1.752,0.367546432,0.51953125,-0.141809291
1.76,0.369501466,0.509765625,-0.149144254
1.768,0.3714565,0.515625,-0.156479218
1.776,0.375366569,0.505859375,-0.161369193
1.784,0.381231672,0.509765625,-0.166259169
1.792,0.390029326,0.515625,-0.171149144
1.8,0.400782014,0.509765625,-0.173594132
1.808,0.414467253,0.490234375,-0.178484108
1.816,0.430107527,0.484375,-0.180929095
1.824,0.446725318,0.474609375,-0.183374083
1.832,0.465298143,0.46484375,-0.185819071
1.84,0.482893451,0.44921875,-0.185819071
1.848,0.499511241,0.455078125,-0.185819071
1.856,0.516129032,0.44921875,-0.185819071
1.864,0.528836755,0.490234375,-0.185819071
1.872,0.54056696,0.51953125,-0.185819071
1.88,0.552297165,0.525390625,-0.185819071
1.888,0.56402737,0.529296875,-0.183374083
1.896,0.574780059,0.509765625,-0.180929095
1.904,0.582600196,0.494140625,-0.178484108
1.912,0.589442815,0.51953125,-0.17603912
1.92,0.593352884,0.525390625,-0.173594132
1.928,0.594330401,0.529296875,-0.171149144
1.936,0.593352884,0.515625,-0.166259169
1.944,0.591397849,0.509765625,-0.163814181
1.952,0.587487781,0.494140625,-0.161369193
1.96,0.582600196,0.484375,-0.156479218
1.968,0.57771261,0.470703125,-0.15403423
1.976,0.572825024,0.470703125,-0.151589242
1.984,0.566959922,0.48046875,-0.149144254
1.992,0.560117302,0.455078125,-0.146699267
2,0.552297165,0.474609375,-0.144254279
2.008,0.544477028,0.494140625,-0.141809291
2.016,0.538611926,0.509765625,-0.139364303
2.024,0.532746823,0.515625,-0.139364303
2.032,0.527859238,0.5,-0.136919315
2.04,0.523949169,0.515625,-0.136919315
2.048,0.520039101,0.6953125,-0.134474328
2.056,0.515151515,1.09375,-0.134474328
2.064,0.509286413,1.234375,-0.134474328
2.072,0.504398827,0.98046875,-0.134474328
2.08,0.500488759,0.640625,-0.13202934
2.088,0.495601173,0.416015625,-0.13202934
2.096,0.491691105,0.359375,-0.13202934
2.104,0.487781036,0.37109375,-0.13202934
2.112,0.483870968,0.375,-0.13202934
2.12,0.480938416,0.380859375,-0.13202934
2.128,0.478005865,0.359375,-0.13202934
2.136,0.474095797,0.380859375,-0.13202934
2.144,0.470185728,0.419921875,-0.13202934
2.152,0.46627566,0.37109375,-0.13202934
2.16,0.462365591,0.384765625,-0.13202934
2.168,0.45943304,0.404296875,-0.13202934
2.176,0.456500489,0.4296875,-0.129584352
2.184,0.453567937,0.416015625,-0.129584352
2.192,0.451612903,0.41015625,-0.129584352
2.2,0.449657869,0.435546875,-0.129584352
2.208,0.447702835,0.400390625,-0.129584352
2.216,0.445747801,0.384765625,-0.129584352
2.224,0.442815249,0.35546875,-0.129584352
2.232,0.439882698,0.35546875,-0.13202934
2.24,0.437927664,0.35546875,-0.13202934
2.248,0.434017595,0.359375,-0.13202934
2.256,0.430107527,0.32421875,-0.13202934
2.264,0.427174976,0.310546875,-0.13202934
2.272,0.424242424,0.35546875,-0.134474328
2.28,0.420332356,0.345703125,-0.134474328
2.288,0.416422287,0.390625,-0.134474328
2.296,0.413489736,0.384765625,-0.134474328
2.304,0.409579668,0.400390625,-0.134474328
2.312,0.405669599,0.470703125,-0.134474328
2.32,0.401759531,0.484375,-0.134474328
2.328,0.396871945,0.46484375,-0.134474328
2.336,0.39198436,0.455078125,-0.134474328
2.344,0.386119257,0.494140625,-0.134474328
2.352,0.380254154,0.474609375,-0.13202934
2.36,0.375366569,0.484375,-0.13202934
2.368,0.3714565,0.505859375,-0.129584352
2.376,0.366568915,0.48046875,-0.129584352
2.384,0.360703812,0.44921875,-0.127139364
2.392,0.356793744,0.4609375,-0.127139364
2.4,0.351906158,0.484375,-0.124694377
2.408,0.34799609,0.494140625,-0.124694377
2.416,0.344086022,0.494140625,-0.124694377
2.424,0.340175953,0.48046875,-0.124694377
2.432,0.336265885,0.44921875,-0.122249389
2.44,0.332355816,0.490234375,-0.122249389
2.448,0.329423265,0.51953125,-0.122249389
2.456,0.327468231,0.529296875,-0.122249389
2.464,0.326490714,0.4453125,-0.122249389
2.472,0.325513196,0.484375,-0.122249389
2.48,0.325513196,0.46484375,-0.122249389
2.488,0.324535679,0.509765625,-0.119804401
2.496,0.324535679,0.455078125,-0.119804401
2.504,0.323558162,0.470703125,-0.119804401
2.512,0.323558162,0.490234375,-0.117359413
2.52,0.323558162,0.55078125,-0.114914425
2.528,0.322580645,0.76953125,-0.112469438
2.536,0.321603128,1.119140625,-0.107579462
2.544,0.318670577,1.169921875,-0.105134474
2.552,0.31769306,0.8046875,-0.100244499
2.56,0.316715543,0.525390625,-0.097799511
2.568,0.31769306,0.41015625,-0.092909535
2.576,0.318670577,0.400390625,-0.08801956
2.584,0.321603128,0.416015625,-0.080684597
2.592,0.325513196,0.42578125,-0.070904645
2.6,0.333333333,0.4296875,-0.061124694
2.608,0.343108504,0.400390625,-0.048899756
2.616,0.35483871,0.400390625,-0.036674817
2.624,0.369501466,0.39453125,-0.024449878
2.632,0.386119257,0.400390625,-0.012224939
2.64,0.405669599,0.384765625,0
2.648,0.427174976,0.39453125,0.014669927
2.656,0.450635386,0.400390625,0.031784841
2.664,0.471163245,0.390625,0.051344743
2.672,0.48973607,0.39453125,0.070904645
2.68,0.509286413,0.380859375,0.092909535
2.688,0.528836755,0.365234375,0.117359413
2.696,0.548387097,0.390625,0.139364303
2.704,0.566959922,0.400390625,0.163814181
2.712,0.585532747,0.375,0.185819071
2.72,0.601173021,0.390625,0.207823961
2.728,0.615835777,0.404296875,0.229828851
2.736,0.626588465,0.416015625,0.249388753
2.744,0.635386119,0.42578125,0.271393643
2.752,0.641251222,0.4453125,0.295843521
2.76,0.644183773,0.46484375,0.317848411
2.768,0.644183773,0.484375,0.339853301
2.776,0.642228739,0.494140625,0.361858191
2.784,0.639296188,0.484375,0.381418093
2.792,0.633431085,0.494140625,0.398533007
2.8,0.626588465,0.505859375,0.415647922
2.808,0.619745846,0.490234375,0.432762836
2.816,0.611925709,0.494140625,0.449877751
2.824,0.603128055,0.484375,0.466992665
2.832,0.595307918,0.46484375,0.484107579
2.84,0.588465298,0.4453125,0.496332518
2.848,0.582600196,0.470703125,0.511002445
2.856,0.578690127,0.4609375,0.520782396
2.864,0.575757576,0.46484375,0.533007335
2.872,0.571847507,0.470703125,0.540342298
2.88,0.568914956,0.474609375,0.547677262
2.888,0.565004888,0.474609375,0.550122249
2.896,0.560117302,0.490234375,0.555012225
2.904,0.556207234,0.5,0.555012225
2.912,0.551319648,0.470703125,0.552567237
2.92,0.546432063,0.46484375,0.550122249
2.928,0.541544477,0.490234375,0.545232274
2.936,0.537634409,0.494140625,0.537897311
2.944,0.532746823,0.470703125,0.533007335
2.952,0.527859238,0.470703125,0.525672372
2.96,0.522971652,0.470703125,0.518337408
2.968,0.519061584,0.48046875,0.506112469
2.976,0.514173998,0.474609375,0.496332518
2.984,0.509286413,0.4609375,0.481662592
2.992,0.505376344,0.4609375,0.466992665
3,0.500488759,0.455078125,0.452322738
3.008,0.49657869,0.44921875,0.437652812
3.016,0.491691105,0.4453125,0.420537897
3.024,0.487781036,0.4453125,0.403422983
3.032,0.482893451,0.44921875,0.388753056
3.04,0.478983382,0.455078125,0.371638142
3.048,0.47311828,0.470703125,0.356968215
3.056,0.469208211,0.474609375,0.344743276
3.064,0.465298143,0.484375,0.33007335
3.072,0.462365591,0.494140625,0.315403423
3.08,0.460410557,0.494140625,0.300733496
3.088,0.458455523,0.5,0.28606357
3.096,0.458455523,0.509765625,0.271393643
3.104,0.45943304,0.494140625,0.259168704
3.112,0.463343109,0.494140625,0.246943765
3.12,0.469208211,0.509765625,0.234718826
3.128,0.478005865,0.640625,0.222493888
3.136,0.487781036,0.94921875,0.207823961
3.144,0.498533724,1.208984375,0.195599022
3.152,0.51026393,1.05859375,0.180929095
3.16,0.521016618,0.740234375,0.168704156
3.168,0.529814272,0.4453125,0.15403423
3.176,0.539589443,0.349609375,0.139364303
3.184,0.549364614,0.37109375,0.124694377
3.192,0.558162268,0.384765625,0.112469438
3.2,0.565982405,0.400390625,0.100244499
3.208,0.571847507,0.375,0.08801956
3.216,0.574780059,0.375,0.075794621
3.224,0.576735093,0.390625,0.06601467
3.232,0.57771261,0.39453125,0.053789731
3.24,0.575757576,0.41015625,0.04400978
3.248,0.572825024,0.404296875,0.034229829
3.256,0.567937439,0.41015625,0.024449878
3.264,0.562072336,0.416015625,0.014669927
3.272,0.554252199,0.400390625,0.007334963
3.28,0.545454545,0.39453125,0
3.288,0.536656891,0.384765625,-0.009779951
3.296,0.527859238,0.37109375,-0.017114914
3.304,0.519061584,0.365234375,-0.024449878
3.312,0.512218964,0.35546875,-0.031784841
3.32,0.505376344,0.349609375,-0.039119804
3.328,0.500488759,0.35546875,-0.046454768
3.336,0.49657869,0.33984375,-0.053789731
3.344,0.493646139,0.3359375,-0.061124694
3.352,0.48973607,0.37109375,-0.068459658
3.36,0.486803519,0.375,-0.075794621
3.368,0.483870968,0.416015625,-0.080684597
3.376,0.479960899,0.455078125,-0.085574572
3.384,0.477028348,0.474609375,-0.090464548
3.392,0.47311828,0.515625,-0.097799511
3.4,0.470185728,0.525390625,-0.102689487
3.408,0.46627566,0.529296875,-0.107579462
3.416,0.462365591,0.51953125,-0.112469438
3.424,0.458455523,0.515625,-0.117359413
3.432,0.454545455,0.51953125,-0.119804401
3.44,0.449657869,0.509765625,-0.124694377
3.448,0.445747801,0.5,-0.127139364
3.456,0.441837732,0.505859375,-0.13202934
3.464,0.437927664,0.48046875,-0.136919315
3.472,0.440860215,0.474609375,-0.139364303
3.48,0.444770283,0.490234375,-0.144254279
3.488,0.444770283,0.494140625,-0.146699267
3.496,0.443792766,0.48046875,-0.151589242
3.504,0.440860215,0.505859375,-0.156479218
3.512,0.437927664,0.509765625,-0.158924205
3.52,0.434995112,0.515625,-0.161369193
3.528,0.432062561,0.51953125,-0.166259169
3.536,0.42913001,0.5,-0.168704156
3.544,0.427174976,0.505859375,-0.171149144
3.552,0.424242424,0.515625,-0.173594132
3.56,0.42228739,0.509765625,-0.178484108
3.568,0.421309873,0.515625,-0.180929095
3.576,0.418377322,0.51953125,-0.183374083
3.584,0.416422287,0.51953125,-0.185819071
3.592,0.414467253,0.494140625,-0.188264059
3.6,0.411534702,0.494140625,-0.190709046
3.608,0.408602151,0.5,-0.193154034
3.616,0.404692082,0.494140625,-0.195599022
3.624,0.400782014,0.5,-0.19804401
3.632,0.397849462,0.509765625,-0.202933985
3.64,0.394916911,0.515625,-0.205378973
3.648,0.393939394,0.525390625,-0.207823961
3.656,0.393939394,0.525390625,-0.210268949
3.664,0.394916911,0.53515625,-0.212713936
3.672,0.397849462,0.5390625,-0.215158924
3.68,0.402737048,0.5390625,-0.217603912
3.688,0.409579668,0.529296875,-0.217603912
3.696,0.419354839,0.529296875,-0.2200489
3.704,0.432062561,0.53515625,-0.2200489
3.712,0.445747801,0.529296875,-0.2200489
3.72,0.462365591,0.5390625,-0.2200489
3.728,0.479960899,0.529296875,-0.2200489
3.736,0.498533724,0.57421875,-0.2200489
3.744,0.517106549,0.8046875,-0.217603912
3.752,0.536656891,1.154296875,-0.217603912
3.76,0.551319648,1.224609375,-0.217603912
3.768,0.565004888,0.958984375,-0.217603912
3.776,0.578690127,0.625,-0.215158924
3.784,0.592375367,0.416015625,-0.215158924
3.792,0.605083089,0.400390625,-0.212713936
3.8,0.616813294,0.439453125,-0.212713936
3.808,0.626588465,0.4453125,-0.210268949
3.816,0.634408602,0.42578125,-0.207823961
3.824,0.639296188,0.4296875,-0.207823961
3.832,0.643206256,0.439453125,-0.205378973
3.84,0.644183773,0.42578125,-0.202933985
3.848,0.642228739,0.416015625,-0.200488998
3.856,0.639296188,0.439453125,-0.200488998
3.864,0.634408602,0.42578125,-0.19804401
3.872,0.6285435,0.416015625,-0.195599022
3.88,0.622678397,0.435546875,-0.195599022
3.888,0.61485826,0.4453125,-0.193154034
3.896,0.606060606,0.42578125,-0.193154034
3.904,0.598240469,0.435546875,-0.190709046
3.912,0.591397849,0.41015625,-0.190709046
3.92,0.58455523,0.419921875,-0.188264059
3.928,0.57771261,0.41015625,-0.188264059
3.936,0.571847507,0.375,-0.185819071
3.944,0.565982405,0.384765625,-0.185819071
3.952,0.560117302,0.375,-0.183374083
3.96,0.555229717,0.400390625,-0.183374083
3.968,0.551319648,0.404296875,-0.180929095
3.976,0.54740958,0.416015625,-0.178484108
3.984,0.542521994,0.46484375,-0.178484108
3.992,0.538611926,0.490234375,-0.17603912
4,0.532746823,0.494140625,-0.173594132
4.008,0.52688172,0.470703125,-0.171149144
4.016,0.521016618,0.490234375,-0.168704156
4.024,0.515151515,0.51953125,-0.166259169
4.032,0.51026393,0.5390625,-0.163814181
4.04,0.504398827,0.5390625,-0.161369193
4.048,0.498533724,0.51953125,-0.158924205
4.056,0.493646139,0.474609375,-0.156479218
4.064,0.488758553,0.494140625,-0.15403423
4.072,0.483870968,0.509765625,-0.151589242
4.08,0.478005865,0.48046875,-0.149144254
4.088,0.47311828,0.490234375,-0.146699267
4.096,0.467253177,0.48046875,-0.144254279
4.104,0.462365591,0.44921875,-0.144254279
4.112,0.457478006,0.470703125,-0.141809291
4.12,0.453567937,0.474609375,-0.141809291
4.128,0.449657869,0.46484375,-0.139364303
4.136,0.445747801,0.474609375,-0.139364303
4.144,0.441837732,0.455078125,-0.139364303
4.152,0.437927664,0.494140625,-0.139364303
4.16,0.43597263,0.490234375,-0.141809291
4.168,0.434017595,0.484375,-0.141809291
4.176,0.431085044,0.494140625,-0.141809291
4.184,0.428152493,0.48046875,-0.141809291
4.192,0.424242424,0.51953125,-0.144254279
4.2,0.421309873,0.53515625,-0.144254279
4.208,0.417399804,0.455078125,-0.144254279
4.216,0.413489736,0.484375,-0.144254279
4.224,0.409579668,0.46484375,-0.144254279
4.232,0.406647116,0.515625,-0.141809291
4.24,0.403714565,0.490234375,-0.141809291
4.248,0.401759531,0.48046875,-0.139364303
4.256,0.399804497,0.474609375,-0.136919315
4.264,0.397849462,0.490234375,-0.134474328
4.272,0.395894428,0.455078125,-0.129584352
4.28,0.395894428,0.5,-0.122249389
4.288,0.396871945,0.515625,-0.114914425
4.296,0.399804497,0.494140625,-0.105134474
4.304,0.405669599,0.505859375,-0.095354523
4.312,0.413489736,0.5,-0.085574572
4.32,0.423264907,0.51953125,-0.073349633
4.328,0.43597263,0.51953125,-0.061124694
4.336,0.449657869,0.505859375,-0.051344743
4.344,0.464320626,0.5,-0.036674817
4.352,0.479960899,0.490234375,-0.019559902
4.36,0.493646139,0.494140625,-0.002444988
4.368,0.506353861,0.484375,0.014669927
4.376,0.521016618,0.51953125,0.034229829
4.384,0.535679374,0.509765625,0.051344743
4.392,0.551319648,0.515625,0.070904645
4.4,0.565004888,0.51953125,0.08801956
4.408,0.578690127,0.529296875,0.11002445
4.416,0.590420332,0.529296875,0.129584352
4.424,0.601173021,0.5546875,0.15403423
4.432,0.608993157,0.6796875,0.17603912
4.44,0.615835777,0.990234375,0.200488998
4.448,0.618768328,1.279296875,0.227383863
4.456,0.620723363,1.1484375,0.251833741
4.464,0.618768328,0.830078125,0.276283619
4.472,0.615835777,0.509765625,0.300733496
4.48,0.609970674,0.404296875,0.322738386
4.488,0.604105572,0.419921875,0.342298289
4.496,0.596285435,0.404296875,0.364303178
4.504,0.589442815,0.416015625,0.383863081
4.512,0.581622678,0.384765625,0.405867971
4.52,0.573802542,0.400390625,0.422982885
4.528,0.566959922,0.41015625,0.442542787
4.536,0.560117302,0.419921875,0.459657702
4.544,0.554252199,0.42578125,0.474327628
4.552,0.548387097,0.419921875,0.488997555
4.56,0.544477028,0.419921875,0.501222494
4.568,0.539589443,0.42578125,0.511002445
4.576,0.535679374,0.4296875,0.523227384
4.584,0.530791789,0.4453125,0.530562347
4.592,0.525904203,0.439453125,0.540342298
4.6,0.521016618,0.419921875,0.545232274
4.608,0.517106549,0.416015625,0.550122249
4.616,0.513196481,0.41015625,0.552567237
4.624,0.508308895,0.400390625,0.555012225
4.632,0.50342131,0.380859375,0.555012225
4.64,0.499511241,0.359375,0.555012225
4.648,0.495601173,0.35546875,0.552567237
4.656,0.491691105,0.37109375,0.550122249
4.664,0.488758553,0.390625,0.545232274
4.672,0.484848485,0.41015625,0.540342298
4.68,0.479960899,0.439453125,0.533007335
4.688,0.476050831,0.474609375,0.525672372
4.696,0.472140762,0.515625,0.515892421
4.704,0.468230694,0.494140625,0.508557457
4.712,0.463343109,0.509765625,0.501222494
4.72,0.458455523,0.515625,0.491442543
4.728,0.454545455,0.515625,0.481662592
4.736,0.449657869,0.505859375,0.471882641
4.744,0.445747801,0.515625,0.457212714
4.752,0.441837732,0.509765625,0.444987775
4.76,0.438905181,0.5,0.432762836
4.768,0.434995112,0.505859375,0.420537897
4.776,0.432062561,0.509765625,0.405867971
4.784,0.428152493,0.505859375,0.391198044
4.792,0.423264907,0.505859375,0.378973105
4.8,0.418377322,0.494140625,0.366748166
4.808,0.413489736,0.51953125,0.35207824
4.816,0.408602151,0.505859375,0.339853301
4.824,0.404692082,0.51953125,0.325183374
4.832,0.399804497,0.51953125,0.312958435
4.84,0.396871945,0.509765625,0.298288509
4.848,0.394916911,0.494140625,0.283618582
4.856,0.393939394,0.494140625,0.268948655
4.864,0.393939394,0.494140625,0.254278729
4.872,0.392961877,0.5,0.239608802
4.88,0.39198436,0.5,0.224938875
4.888,0.390029326,0.505859375,0.207823961
4.896,0.388074291,0.509765625,0.193154034
4.904,0.386119257,0.509765625,0.173594132
4.912,0.384164223,0.51953125,0.156479218
4.92,0.382209189,0.525390625,0.136919315
4.928,0.379276637,0.529296875,0.119804401
4.936,0.37829912,0.51953125,0.100244499
4.944,0.376344086,0.525390625,0.080684597
4.952,0.375366569,0.51953125,0.061124694
4.96,0.376344086,0.53515625,0.04400978
4.968,0.37829912,0.529296875,0.026894866
4.976,0.382209189,0.525390625,0.009779951
4.984,0.388074291,0.51953125,-0.004889976
4.992,0.396871945,0.51953125,-0.02200489
5,0.409579668,0.5,-0.039119804
5.008,0.424242424,0.509765625,-0.053789731
5.016,0.440860215,0.51953125,-0.068459658
5.024,0.45943304,0.51953125,-0.080684597
5.032,0.478983382,0.515625,-0.092909535
5.04,0.498533724,0.509765625,-0.105134474
5.048,0.518084066,0.490234375,-0.114914425
5.056,0.534701857,0.490234375,-0.127139364
5.064,0.549364614,0.494140625,-0.136919315
5.072,0.565982405,0.515625,-0.144254279
5.08,0.582600196,0.51953125,-0.15403423
5.088,0.599217986,0.505859375,-0.163814181
5.096,0.613880743,0.5,-0.171149144
5.104,0.627565982,0.5,-0.178484108
5.112,0.639296188,0.494140625,-0.185819071
5.12,0.649071359,0.494140625,-0.190709046
5.128,0.656891496,0.494140625,-0.195599022
5.136,0.660801564,0.494140625,-0.200488998
5.144,0.663734115,0.494140625,-0.205378973
5.152,0.663734115,0.505859375,-0.210268949
5.16,0.661779081,0.5,-0.212713936
5.168,0.65884653,0.509765625,-0.215158924
5.176,0.653958944,0.51953125,-0.217603912
5.184,0.647116325,0.529296875,-0.2200489
5.192,0.640273705,0.509765625,-0.222493888
5.2,0.632453568,0.53515625,-0.224938875
5.208,0.625610948,0.765625,-0.224938875
5.216,0.617790811,1.154296875,-0.227383863
5.224,0.609970674,1.25390625,-0.227383863
5.232,0.603128055,0.96484375,-0.227383863
5.24,0.597262952,0.634765625,-0.227383863
5.248,0.590420332,0.4296875,-0.227383863
5.256,0.585532747,0.400390625,-0.227383863
5.264,0.580645161,0.42578125,-0.227383863
5.272,0.574780059,0.42578125,-0.224938875
5.28,0.569892473,0.416015625,-0.224938875
5.288,0.565982405,0.416015625,-0.222493888
5.296,0.562072336,0.42578125,-0.2200489
5.304,0.559139785,0.416015625,-0.217603912
5.312,0.555229717,0.41015625,-0.215158924
5.32,0.552297165,0.416015625,-0.212713936
5.328,0.548387097,0.419921875,-0.210268949
5.336,0.544477028,0.42578125,-0.210268949
5.344,0.54056696,0.400390625,-0.207823961
5.352,0.535679374,0.404296875,-0.205378973
5.36,0.530791789,0.400390625,-0.202933985
5.368,0.525904203,0.404296875,-0.200488998
5.376,0.520039101,0.416015625,-0.200488998
5.384,0.514173998,0.404296875,-0.19804401
5.392,0.507331378,0.380859375,-0.195599022
5.4,0.500488759,0.375,-0.195599022
5.408,0.492668622,0.380859375,-0.193154034
5.416,0.484848485,0.384765625,-0.193154034
5.424,0.478005865,0.400390625,-0.190709046
5.432,0.471163245,0.42578125,-0.190709046
5.44,0.465298143,0.416015625,-0.188264059
5.448,0.458455523,0.400390625,-0.188264059
5.456,0.453567937,0.439453125,-0.185819071
5.464,0.448680352,0.46484375,-0.185819071
5.472,0.444770283,0.490234375,-0.185819071
5.48,0.439882698,0.51953125,-0.185819071
5.488,0.43597263,0.544921875,-0.185819071
5.496,0.432062561,0.55078125,-0.185819071
5.504,0.42913001,0.509765625,-0.185819071
5.512,0.426197458,0.51953125,-0.183374083
5.52,0.41544477,0.5390625,-0.183374083
5.528,0.401759531,0.515625,-0.183374083
5.536,0.392961877,0.505859375,-0.183374083
5.544,0.387096774,0.51953125,-0.180929095
5.552,0.382209189,0.529296875,-0.180929095
5.56,0.37829912,0.505859375,-0.180929095
5.568,0.376344086,0.474609375,-0.180929095
5.576,0.373411535,0.505859375,-0.180929095
5.584,0.370478983,0.509765625,-0.180929095
5.592,0.368523949,0.509765625,-0.180929095
5.6,0.366568915,0.494140625,-0.183374083
5.608,0.364613881,0.5,-0.183374083
5.616,0.363636364,0.494140625,-0.183374083
5.624,0.361681329,0.490234375,-0.185819071
5.632,0.358748778,0.525390625,-0.185819071
5.64,0.355816227,0.51953125,-0.188264059
5.648,0.353861193,0.529296875,-0.190709046
5.656,0.351906158,0.53515625,-0.190709046
5.664,0.350928641,0.505859375,-0.193154034
5.672,0.348973607,0.53515625,-0.193154034
5.68,0.347018573,0.544921875,-0.193154034
5.688,0.346041056,0.55078125,-0.195599022
5.696,0.344086022,0.490234375,-0.195599022
5.704,0.343108504,0.48046875,-0.19804401
5.712,0.34115347,0.51953125,-0.200488998
5.72,0.340175953,0.470703125,-0.200488998
5.728,0.339198436,0.44921875,-0.202933985
5.736,0.339198436,0.439453125,-0.202933985
5.744,0.340175953,0.474609375,-0.205378973
5.752,0.342130987,0.470703125,-0.205378973
5.76,0.347018573,0.470703125,-0.207823961
5.768,0.353861193,0.48046875,-0.207823961
5.776,0.364613881,0.494140625,-0.207823961
5.784,0.37829912,0.46484375,-0.207823961
5.792,0.394916911,0.490234375,-0.207823961
5.8,0.414467253,0.51953125,-0.207823961
5.808,0.43597263,0.51953125,-0.205378973
5.816,0.458455523,0.5390625,-0.205378973
5.824,0.480938416,0.515625,-0.205378973
5.832,0.502443793,0.494140625,-0.202933985
5.84,0.522971652,0.46484375,-0.200488998
5.848,0.542521994,0.4609375,-0.19804401
5.856,0.559139785,0.505859375,-0.195599022
5.864,0.571847507,0.634765625,-0.193154034
5.872,0.585532747,0.923828125,-0.190709046
5.88,0.598240469,1.240234375,-0.188264059
5.888,0.609970674,1.064453125,-0.185819071
5.896,0.619745846,0.740234375,-0.180929095
5.904,0.627565982,0.455078125,-0.178484108
5.912,0.633431085,0.390625,-0.173594132
5.92,0.637341153,0.35546875,-0.171149144
5.928,0.638318671,0.404296875,-0.166259169
5.936,0.637341153,0.390625,-0.161369193
5.944,0.634408602,0.404296875,-0.15403423
5.952,0.6285435,0.380859375,-0.149144254
5.96,0.622678397,0.44921875,-0.139364303
5.968,0.616813294,0.470703125,-0.13202934
5.976,0.608993157,0.39453125,-0.124694377
5.984,0.601173021,0.419921875,-0.117359413
5.992,0.593352884,0.439453125,-0.107579462
6,0.586510264,0.4296875,-0.100244499
6.008,0.579667644,0.42578125,-0.08801956
6.016,0.572825024,0.419921875,-0.075794621
6.024,0.566959922,0.39453125,-0.061124694
6.032,0.561094819,0.375,-0.046454768
6.04,0.554252199,0.375,-0.029339853
6.048,0.548387097,0.375,-0.009779951
6.056,0.542521994,0.375,0.009779951
6.064,0.537634409,0.37109375,0.029339853
6.072,0.532746823,0.39453125,0.048899756
6.08,0.52688172,0.416015625,0.070904645
6.088,0.521016618,0.419921875,0.08801956
6.096,0.515151515,0.4296875,0.107579462
6.104,0.509286413,0.455078125,0.129584352
6.112,0.502443793,0.474609375,0.151589242
6.12,0.49657869,0.5,0.173594132
6.128,0.490713587,0.51953125,0.195599022
6.136,0.484848485,0.5390625,0.217603912
6.144,0.478983382,0.525390625,0.239608802
6.152,0.474095797,0.51953125,0.259168704
6.16,0.469208211,0.515625,0.278728606
6.168,0.463343109,0.525390625,0.298288509
6.176,0.458455523,0.529296875,0.317848411
6.184,0.45259042,0.505859375,0.339853301
6.192,0.447702835,0.529296875,0.359413203
6.2,0.442815249,0.51953125,0.381418093
6.208,0.438905181,0.525390625,0.400977995
6.216,0.434995112,0.51953125,0.420537897
6.224,0.431085044,0.515625,0.4400978
6.232,0.426197458,0.494140625,0.457212714
6.24,0.421309873,0.5,0.471882641
6.248,0.416422287,0.490234375,0.486552567
6.256,0.411534702,0.484375,0.498777506
6.264,0.407624633,0.490234375,0.508557457
6.272,0.403714565,0.490234375,0.518337408
6.28,0.399804497,0.490234375,0.525672372
6.288,0.394916911,0.494140625,0.533007335
6.296,0.391006843,0.505859375,0.535452323
6.304,0.387096774,0.5,0.540342298
6.312,0.383186706,0.494140625,0.542787286
6.32,0.379276637,0.5,0.545232274
6.328,0.375366569,0.509765625,0.542787286
6.336,0.372434018,0.494140625,0.540342298
6.344,0.369501466,0.505859375,0.533007335
6.352,0.366568915,0.515625,0.528117359
6.36,0.365591398,0.51953125,0.518337408
6.368,0.363636364,0.509765625,0.508557457
6.376,0.361681329,0.509765625,0.493887531
6.384,0.359726295,0.515625,0.481662592
6.392,0.357771261,0.51953125,0.469437653
6.4,0.356793744,0.505859375,0.454767726
6.408,0.355816227,0.509765625,0.442542787
6.416,0.355816227,0.490234375,0.430317848
6.424,0.357771261,0.484375,0.415647922
6.432,0.363636364,0.490234375,0.400977995
6.44,0.3714565,0.494140625,0.386308068
6.448,0.382209189,0.5,0.371638142
6.456,0.393939394,0.490234375,0.356968215
6.464,0.405669599,0.5,0.344743276
6.472,0.419354839,0.484375,0.332518337
6.48,0.434995112,0.494140625,0.320293399
6.488,0.450635386,0.484375,0.30806846
6.496,0.468230694,0.490234375,0.295843521
6.504,0.483870968,0.583984375,0.281173594
6.512,0.499511241,0.900390625,0.268948655
6.52,0.515151515,1.18359375,0.254278729
6.528,0.528836755,1.09375,0.239608802
6.536,0.543499511,0.779296875,0.227383863
6.544,0.556207234,0.470703125,0.212713936
6.552,0.565982405,0.37109375,0.200488998
6.56,0.573802542,0.41015625,0.188264059
6.568,0.581622678,0.419921875,0.17603912
6.576,0.588465298,0.4296875,0.163814181
6.584,0.593352884,0.4453125,0.151589242
6.592,0.596285435,0.4296875,0.139364303
6.6,0.597262952,0.42578125,0.124694377
6.608,0.596285435,0.4296875,0.112469438
6.616,0.592375367,0.435546875,0.100244499
6.624,0.586510264,0.439453125,0.08801956
6.632,0.578690127,0.42578125,0.075794621
6.64,0.569892473,0.4296875,0.063569682
6.648,0.560117302,0.439453125,0.051344743
6.656,0.551319648,0.41015625,0.039119804
6.664,0.542521994,0.400390625,0.026894866
6.672,0.534701857,0.400390625,0.014669927
6.68,0.52688172,0.390625,0.002444988
6.688,0.520039101,0.39453125,-0.009779951
6.696,0.513196481,0.375,-0.019559902
6.704,0.506353861,0.375,-0.031784841
6.712,0.500488759,0.37109375,-0.041564792
6.72,0.495601173,0.380859375,-0.051344743
6.728,0.492668622,0.384765625,-0.061124694
6.736,0.490713587,0.400390625,-0.068459658
6.744,0.488758553,0.435546875,-0.078239609
6.752,0.485826002,0.474609375,-0.085574572
6.76,0.483870968,0.484375,-0.092909535
6.768,0.481915934,0.5,-0.100244499
6.776,0.478983382,0.529296875,-0.107579462
6.784,0.475073314,0.53515625,-0.114914425
6.792,0.470185728,0.53515625,-0.119804401
6.8,0.46627566,0.5390625,-0.124694377
6.808,0.461388074,0.5390625,-0.13202934
6.816,0.457478006,0.515625,-0.136919315
6.824,0.45259042,0.525390625,-0.141809291
6.832,0.448680352,0.525390625,-0.149144254
6.84,0.443792766,0.51953125,-0.15403423
6.848,0.438905181,0.529296875,-0.158924205
6.856,0.434017595,0.515625,-0.163814181
6.864,0.430107527,0.490234375,-0.168704156
6.872,0.426197458,0.484375,-0.173594132
6.88,0.42228739,0.494140625,-0.17603912
6.888,0.418377322,0.5,-0.180929095
6.896,0.413489736,0.494140625,-0.183374083
6.904,0.410557185,0.494140625,-0.188264059
6.912,0.407624633,0.490234375,-0.193154034
6.92,0.404692082,0.494140625,-0.195599022
6.928,0.401759531,0.509765625,-0.200488998
6.936,0.399804497,0.525390625,-0.205378973
6.944,0.396871945,0.51953125,-0.207823961
6.952,0.394916911,0.509765625,-0.210268949
6.96,0.392961877,0.515625,-0.212713936
6.968,0.391006843,0.515625,-0.217603912
6.976,0.388074291,0.51953125,-0.2200489
6.984,0.38514174,0.51953125,-0.222493888
6.992,0.382209189,0.525390625,-0.224938875
7,0.379276637,0.51953125,-0.227383863
7.008,0.376344086,0.51953125,-0.229828851
7.016,0.373411535,0.51953125,-0.234718826
7.024,0.370478983,0.51953125,-0.237163814
7.032,0.368523949,0.494140625,-0.239608802
7.04,0.366568915,0.494140625,-0.239608802
7.048,0.366568915,0.5,-0.24205379
7.056,0.367546432,0.509765625,-0.244498778
7.064,0.370478983,0.525390625,-0.244498778
7.072,0.375366569,0.529296875,-0.246943765
7.08,0.384164223,0.51953125,-0.246943765
7.088,0.394916911,0.505859375,-0.246943765
7.096,0.407624633,0.509765625,-0.246943765
7.104,0.42228739,0.5,-0.246943765
7.112,0.438905181,0.505859375,-0.244498778
7.12,0.454545455,0.515625,-0.244498778
7.128,0.471163245,0.494140625,-0.244498778
7.136,0.487781036,0.5,-0.24205379
7.144,0.504398827,0.505859375,-0.24205379
7.152,0.519061584,0.494140625,-0.239608802
7.16,0.530791789,0.509765625,-0.237163814
7.168,0.544477028,0.5,-0.237163814
7.176,0.557184751,0.470703125,-0.234718826
7.184,0.57086999,0.484375,-0.232273839
7.192,0.581622678,0.494140625,-0.229828851
7.2,0.592375367,0.509765625,-0.227383863
7.208,0.599217986,0.51953125,-0.222493888
7.216,0.604105572,0.505859375,-0.2200489
7.224,0.607038123,0.505859375,-0.217603912
7.232,0.607038123,0.5,-0.215158924
7.24,0.604105572,0.525390625,-0.210268949
7.248,0.600195503,0.53515625,-0.207823961
7.256,0.595307918,0.51953125,-0.205378973
7.264,0.589442815,0.51953125,-0.202933985
7.272,0.583577713,0.51953125,-0.200488998
7.28,0.576735093,0.505859375,-0.19804401
7.288,0.569892473,0.515625,-0.195599022
7.296,0.563049853,0.505859375,-0.193154034
7.304,0.557184751,0.51953125,-0.188264059
7.312,0.550342131,0.5390625,-0.185819071
7.32,0.544477028,0.759765625,-0.180929095
7.328,0.538611926,1.138671875,-0.178484108
7.336,0.53372434,1.205078125,-0.17603912
7.344,0.527859238,0.89453125,-0.171149144
7.352,0.522971652,0.599609375,-0.168704156
7.36,0.518084066,0.419921875,-0.166259169
7.368,0.513196481,0.384765625,-0.163814181
7.376,0.507331378,0.455078125,-0.161369193
7.384,0.501466276,0.46484375,-0.161369193
7.392,0.495601173,0.4453125,-0.158924205
7.4,0.48973607,0.400390625,-0.156479218
7.408,0.484848485,0.41015625,-0.156479218
7.416,0.480938416,0.39453125,-0.15403423
7.424,0.476050831,0.384765625,-0.15403423
7.432,0.472140762,0.39453125,-0.151589242
7.44,0.468230694,0.416015625,-0.151589242
7.448,0.464320626,0.42578125,-0.149144254
7.456,0.461388074,0.404296875,-0.149144254
7.464,0.457478006,0.384765625,-0.146699267
7.472,0.453567937,0.380859375,-0.146699267
7.48,0.450635386,0.37109375,-0.144254279
7.488,0.447702835,0.380859375,-0.144254279
7.496,0.443792766,0.41015625,-0.141809291
7.504,0.439882698,0.419921875,-0.141809291
7.512,0.43597263,0.365234375,-0.139364303
7.52,0.432062561,0.310546875,-0.139364303
7.528,0.428152493,0.359375,-0.136919315
7.536,0.423264907,0.37109375,-0.134474328
7.544,0.419354839,0.310546875,-0.134474328
7.552,0.416422287,0.3046875,-0.13202934
7.56,0.412512219,0.375,-0.129584352
7.568,0.411534702,0.404296875,-0.127139364
7.576,0.411534702,0.390625,-0.127139364
7.584,0.409579668,0.419921875,-0.124694377
7.592,0.407624633,0.46484375,-0.124694377
7.6,0.405669599,0.4453125,-0.122249389
7.608,0.402737048,0.44921875,-0.122249389
7.616,0.399804497,0.474609375,-0.122249389
7.624,0.396871945,0.470703125,-0.122249389
7.632,0.393939394,0.474609375,-0.119804401
7.64,0.39198436,0.544921875,-0.119804401
7.648,0.389051808,0.55078125,-0.119804401
7.656,0.387096774,0.490234375,-0.119804401
7.664,0.384164223,0.484375,-0.119804401
7.672,0.380254154,0.505859375,-0.119804401
7.68,0.377321603,0.4609375,-0.119804401
7.688,0.375366569,0.509765625,-0.122249389
7.696,0.373411535,0.455078125,-0.122249389
7.704,0.3714565,0.46484375,-0.122249389
7.712,0.369501466,0.474609375,-0.122249389
7.72,0.368523949,0.470703125,-0.124694377
7.728,0.367546432,0.435546875,-0.124694377
7.736,0.366568915,0.455078125,-0.124694377
7.744,0.366568915,0.435546875,-0.124694377
7.752,0.366568915,0.4609375,-0.127139364
7.76,0.366568915,0.490234375,-0.127139364
7.768,0.366568915,0.439453125,-0.124694377
7.776,0.364613881,0.455078125,-0.122249389
7.784,0.363636364,0.5,-0.119804401
7.792,0.360703812,0.609375,-0.114914425
7.8,0.357771261,0.865234375,-0.107579462
7.808,0.355816227,1.1640625,-0.102689487
7.816,0.352883675,1.029296875,-0.092909535
7.824,0.350928641,0.740234375,-0.083129584
7.832,0.348973607,0.48046875,-0.075794621
7.84,0.348973607,0.390625,-0.06601467
7.848,0.349951124,0.390625,-0.056234719
7.856,0.351906158,0.400390625,-0.04400978
7.864,0.356793744,0.404296875,-0.031784841
7.872,0.363636364,0.39453125,-0.017114914
7.88,0.373411535,0.375,0
7.888,0.386119257,0.375,0.017114914
7.896,0.402737048,0.400390625,0.034229829
7.904,0.421309873,0.39453125,0.051344743
7.912,0.442815249,0.39453125,0.068459658
7.92,0.46627566,0.400390625,0.085574572
7.928,0.48973607,0.39453125,0.102689487
7.936,0.513196481,0.400390625,0.122249389
7.944,0.534701857,0.390625,0.144254279
7.952,0.553274682,0.384765625,0.166259169
7.96,0.568914956,0.39453125,0.188264059
7.968,0.585532747,0.390625,0.210268949
7.976,0.601173021,0.404296875,0.234718826
7.984,0.616813294,0.41015625,0.256723716
7.992,0.630498534,0.416015625,0.278728606
8,0.642228739,0.42578125,0.298288509
8.008,0.65200391,0.455078125,0.317848411
8.016,0.659824047,0.455078125,0.334963325
8.024,0.66568915,0.46484375,0.354523227
8.032,0.668621701,0.494140625,0.371638142
8.04,0.669599218,0.515625,0.391198044
8.048,0.667644184,0.51953125,0.408312958
8.056,0.664711632,0.515625,0.425427873
8.064,0.659824047,0.525390625,0.4400978
8.072,0.653958944,0.494140625,0.454767726
8.08,0.646138807,0.494140625,0.466992665
8.088,0.638318671,0.5,0.481662592
8.096,0.630498534,0.494140625,0.493887531
8.104,0.622678397,0.490234375,0.506112469
8.112,0.613880743,0.490234375,0.518337408
8.12,0.606060606,0.484375,0.525672372
8.128,0.598240469,0.48046875,0.535452323
8.136,0.592375367,0.470703125,0.542787286
8.144,0.585532747,0.470703125,0.547677262
8.152,0.579667644,0.46484375,0.552567237
8.16,0.573802542,0.5,0.555012225
8.168,0.566959922,0.51953125,0.557457213
8.176,0.560117302,0.509765625,0.557457213
8.184,0.553274682,0.484375,0.555012225
8.192,0.54740958,0.494140625,0.550122249
8.2,0.54056696,0.494140625,0.545232274
8.208,0.534701857,0.5,0.537897311
8.216,0.528836755,0.484375,0.528117359
8.224,0.521994135,0.48046875,0.520782396
8.232,0.515151515,0.474609375,0.511002445
8.24,0.508308895,0.474609375,0.501222494
8.248,0.50342131,0.4609375,0.488997555
8.256,0.498533724,0.470703125,0.474327628
8.264,0.493646139,0.470703125,0.459657702
8.272,0.488758553,0.46484375,0.444987775
8.28,0.485826002,0.4609375,0.427872861
8.288,0.481915934,0.455078125,0.413202934
8.296,0.478983382,0.470703125,0.39608802
8.304,0.476050831,0.474609375,0.378973105
8.312,0.47311828,0.48046875,0.364303178
8.32,0.470185728,0.509765625,0.349633252
8.328,0.467253177,0.525390625,0.337408313
8.336,0.464320626,0.525390625,0.322738386
8.344,0.461388074,0.509765625,0.310513447
8.352,0.45943304,0.494140625,0.295843521
8.36,0.45943304,0.5,0.281173594
8.368,0.460410557,0.494140625,0.268948655
8.376,0.462365591,0.490234375,0.254278729
8.384,0.467253177,0.474609375,0.24205379
8.392,0.474095797,0.470703125,0.229828851
8.4,0.483870968,0.474609375,0.217603912
8.408,0.495601173,0.470703125,0.205378973
8.416,0.509286413,0.455078125,0.193154034
8.424,0.522971652,0.46484375,0.178484108
8.432,0.537634409,0.470703125,0.163814181
8.44,0.551319648,0.4609375,0.149144254
8.448,0.561094819,0.4609375,0.134474328
8.456,0.569892473,0.4609375,0.119804401
8.464,0.578690127,0.470703125,0.105134474
8.472,0.586510264,0.5,0.092909535
8.48,0.592375367,0.6640625,0.080684597
8.488,0.597262952,1.013671875,0.068459658
8.496,0.599217986,1.244140625,0.056234719
8.504,0.600195503,1.048828125,0.04400978
8.512,0.599217986,0.740234375,0.031784841
8.52,0.596285435,0.470703125,0.019559902
8.528,0.592375367,0.390625,0.007334963
8.536,0.586510264,0.41015625,-0.002444988
8.544,0.580645161,0.419921875,-0.012224939
8.552,0.573802542,0.404296875,-0.02200489
8.56,0.565982405,0.400390625,-0.031784841
8.568,0.558162268,0.41015625,-0.039119804
8.576,0.551319648,0.400390625,-0.048899756
8.584,0.543499511,0.400390625,-0.056234719
8.592,0.536656891,0.39453125,-0.06601467
8.6,0.529814272,0.400390625,-0.073349633
8.608,0.523949169,0.404296875,-0.080684597
8.616,0.519061584,0.39453125,-0.08801956
8.624,0.513196481,0.39453125,-0.095354523
8.632,0.508308895,0.375,-0.100244499
8.64,0.50342131,0.375,-0.107579462
8.648,0.499511241,0.404296875,-0.112469438
8.656,0.49657869,0.416015625,-0.117359413
8.664,0.493646139,0.390625,-0.122249389
8.672,0.490713587,0.359375,-0.127139364
8.68,0.488758553,0.359375,-0.13202934
8.688,0.487781036,0.35546875,-0.134474328
8.696,0.485826002,0.37109375,-0.139364303
8.704,0.484848485,0.35546875,-0.141809291
8.712,0.482893451,0.35546875,-0.146699267
8.72,0.480938416,0.359375,-0.149144254
8.728,0.479960899,0.39453125,-0.151589242
8.736,0.478005865,0.435546875,-0.156479218
8.744,0.476050831,0.46484375,-0.158924205
8.752,0.475073314,0.494140625,-0.161369193
8.76,0.47311828,0.494140625,-0.161369193
8.768,0.471163245,0.484375,-0.163814181
8.776,0.469208211,0.490234375,-0.166259169
8.784,0.46627566,0.494140625,-0.166259169
8.792,0.463343109,0.484375,-0.166259169
8.8,0.45943304,0.48046875,-0.168704156
8.808,0.455522972,0.505859375,-0.168704156
8.816,0.449657869,0.5390625,-0.168704156
8.824,0.443792766,0.53515625,-0.168704156
8.832,0.436950147,0.5390625,-0.168704156
8.84,0.430107527,0.5546875,-0.168704156
8.848,0.424242424,0.509765625,-0.168704156
8.856,0.419354839,0.494140625,-0.168704156
8.864,0.412512219,0.51953125,-0.168704156
8.872,0.404692082,0.509765625,-0.171149144
8.88,0.397849462,0.51953125,-0.171149144
8.888,0.390029326,0.515625,-0.173594132
8.896,0.383186706,0.5,-0.17603912
8.904,0.377321603,0.51953125,-0.178484108
8.912,0.3714565,0.509765625,-0.180929095
8.92,0.367546432,0.505859375,-0.183374083
8.928,0.362658847,0.494140625,-0.188264059
8.936,0.358748778,0.494140625,-0.193154034
8.944,0.353861193,0.494140625,-0.195599022
8.952,0.350928641,0.494140625,-0.200488998
8.96,0.34799609,0.490234375,-0.202933985
8.968,0.345063539,0.505859375,-0.205378973
8.976,0.34115347,0.53515625,-0.207823961
8.984,0.338220919,0.544921875,-0.210268949
8.992,0.336265885,0.51953125,-0.215158924
9,0.33431085,0.51953125,-0.217603912
9.008,0.333333333,0.509765625,-0.2200489
9.016,0.33431085,0.515625,-0.222493888
9.024,0.337243402,0.494140625,-0.224938875
9.032,0.344086022,0.509765625,-0.224938875
9.04,0.353861193,0.51953125,-0.227383863
9.048,0.365591398,0.51953125,-0.229828851
9.056,0.37829912,0.515625,-0.229828851
9.064,0.394916911,0.51953125,-0.232273839
9.072,0.414467253,0.505859375,-0.232273839
9.08,0.43597263,0.494140625,-0.232273839
9.088,0.457478006,0.509765625,-0.234718826
9.096,0.479960899,0.525390625,-0.234718826
9.104,0.501466276,0.494140625,-0.234718826
9.112,0.522971652,0.484375,-0.232273839
9.12,0.543499511,0.5,-0.232273839
9.128,0.563049853,0.490234375,-0.229828851
9.136,0.581622678,0.494140625,-0.229828851
9.144,0.599217986,0.490234375,-0.227383863
9.152,0.612903226,0.544921875,-0.224938875
9.16,0.623655914,0.5546875,-0.222493888
9.168,0.634408602,0.544921875,-0.2200489
9.176,0.643206256,0.509765625,-0.217603912
9.184,0.649071359,0.5,-0.215158924
9.192,0.652981427,0.51953125,-0.210268949
9.2,0.654936461,0.5,-0.207823961
9.208,0.652981427,0.470703125,-0.205378973
9.216,0.649071359,0.494140625,-0.202933985
9.224,0.644183773,0.505859375,-0.19804401
9.232,0.637341153,0.490234375,-0.195599022
9.24,0.629521017,0.5,-0.193154034
9.248,0.620723363,0.470703125,-0.190709046
9.256,0.612903226,0.490234375,-0.185819071
9.264,0.605083089,0.494140625,-0.183374083
9.272,0.596285435,0.470703125,-0.180929095
9.28,0.589442815,0.490234375,-0.178484108
9.288,0.583577713,0.484375,-0.17603912
9.296,0.576735093,0.859375,-0.173594132
9.304,0.571847507,1.189453125,-0.171149144
9.312,0.566959922,1.099609375,-0.168704156
9.32,0.563049853,0.85546875,-0.166259169
9.328,0.560117302,0.525390625,-0.161369193
9.336,0.556207234,0.390625,-0.158924205
9.344,0.552297165,0.390625,-0.156479218
9.352,0.548387097,0.375,-0.15403423
9.36,0.544477028,0.390625,-0.151589242
9.368,0.54056696,0.400390625,-0.151589242
9.376,0.536656891,0.35546875,-0.149144254
9.384,0.531769306,0.375,-0.146699267
9.392,0.524926686,0.375,-0.146699267
9.4,0.519061584,0.41015625,-0.144254279
9.408,0.513196481,0.37109375,-0.144254279
9.416,0.508308895,0.390625,-0.141809291
9.424,0.504398827,0.400390625,-0.139364303
9.432,0.500488759,0.359375,-0.139364303
9.44,0.497556207,0.375,-0.136919315
9.448,0.495601173,0.37109375,-0.136919315
9.456,0.492668622,0.416015625,-0.134474328
9.464,0.48973607,0.3359375,-0.134474328
9.472,0.485826002,0.349609375,-0.13202934
9.48,0.480938416,0.35546875,-0.13202934
9.488,0.476050831,0.3203125,-0.129584352
9.496,0.470185728,0.3359375,-0.127139364
9.504,0.465298143,0.3203125,-0.124694377
9.512,0.460410557,0.310546875,-0.124694377
9.52,0.456500489,0.37109375,-0.122249389
9.528,0.451612903,0.416015625,-0.117359413
9.536,0.447702835,0.400390625,-0.114914425
9.544,0.443792766,0.455078125,-0.11002445
9.552,0.440860215,0.490234375,-0.102689487
9.56,0.436950147,0.505859375,-0.095354523
9.568,0.434017595,0.4609375,-0.08801956
9.576,0.431085044,0.509765625,-0.080684597
9.584,0.427174976,0.474609375,-0.070904645
9.592,0.423264907,0.490234375,-0.061124694
9.6,0.419354839,0.494140625,-0.053789731
9.608,0.416422287,0.5,-0.04400978
9.616,0.414467253,0.490234375,-0.034229829
9.624,0.413489736,0.505859375,-0.02200489
9.632,0.411534702,0.490234375,-0.009779951
9.64,0.409579668,0.490234375,0.004889976
9.648,0.407624633,0.484375,0.019559902
9.656,0.406647116,0.505859375,0.031784841
9.664,0.403714565,0.494140625,0.04400978
9.672,0.400782014,0.505859375,0.058679707
9.68,0.395894428,0.494140625,0.070904645
9.688,0.39198436,0.505859375,0.085574572
9.696,0.388074291,0.51953125,0.100244499
9.704,0.384164223,0.525390625,0.114914425
9.712,0.382209189,0.529296875,0.13202934
9.72,0.380254154,0.51953125,0.149144254
9.728,0.379276637,0.515625,0.166259169
9.736,0.37829912,0.525390625,0.185819071
9.744,0.379276637,0.51953125,0.202933985
9.752,0.379276637,0.57421875,0.2200489
9.76,0.379276637,0.765625,0.234718826
9.768,0.37829912,1.0546875,0.249388753
9.776,0.376344086,1.16015625,0.26405868
9.784,0.375366569,0.91015625,0.278728606
9.792,0.373411535,0.615234375,0.295843521
9.8,0.372434018,0.419921875,0.310513447
9.808,0.370478983,0.400390625,0.325183374
9.816,0.369501466,0.42578125,0.337408313
9.824,0.369501466,0.416015625,0.35207824
9.832,0.3714565,0.41015625,0.364303178
9.84,0.375366569,0.416015625,0.376528117
9.848,0.380254154,0.41015625,0.388753056
9.856,0.387096774,0.416015625,0.400977995
9.864,0.396871945,0.42578125,0.413202934
9.872,0.409579668,0.439453125,0.425427873
9.88,0.425219941,0.4609375,0.435207824
9.888,0.442815249,0.46484375,0.444987775
9.896,0.461388074,0.439453125,0.452322738
9.904,0.480938416,0.4453125,0.462102689
9.912,0.500488759,0.44921875,0.466992665
9.92,0.520039101,0.435546875,0.471882641
9.928,0.539589443,0.42578125,0.476772616
9.936,0.559139785,0.42578125,0.479217604
9.944,0.574780059,0.419921875,0.479217604
9.952,0.589442815,0.416015625,0.479217604
9.96,0.605083089,0.42578125,0.479217604
9.968,0.620723363,0.419921875,0.476772616
9.976,0.634408602,0.42578125,0.474327628
9.984,0.646138807,0.439453125,0.469437653
9.992,0.655913978,0.4609375,0.464547677
10,0.662756598,0.490234375,0.462102689
10.008,0.666666667,0.509765625,0.454767726
10.016,0.668621701,0.51953125,0.447432763
10.024,0.668621701,0.51953125,0.4400978
10.032,0.666666667,0.53515625,0.430317848
10.04,0.663734115,0.529296875,0.420537897
10.048,0.65884653,0.544921875,0.413202934
10.056,0.653958944,0.529296875,0.400977995
10.064,0.649071359,0.515625,0.391198044
10.072,0.642228739,0.505859375,0.383863081
10.08,0.634408602,0.494140625,0.37408313
10.088,0.627565982,0.484375,0.364303178
10.096,0.62170088,0.48046875,0.356968215
10.104,0.61485826,0.470703125,0.347188264
10.112,0.608993157,0.470703125,0.339853301
10.12,0.602150538,0.484375,0.33007335
10.128,0.595307918,0.490234375,0.320293399
10.136,0.589442815,0.470703125,0.310513447
10.144,0.583577713,0.48046875,0.303178484
10.152,0.578690127,0.484375,0.293398533
10.16,0.574780059,0.490234375,0.283618582
10.168,0.569892473,0.505859375,0.273838631
10.176,0.565982405,0.51953125,0.261613692
10.184,0.562072336,0.515625,0.249388753
10.192,0.559139785,0.525390625,0.239608802
10.2,0.556207234,0.515625,0.224938875
10.208,0.553274682,0.525390625,0.212713936
10.216,0.550342131,0.5390625,0.19804401
10.224,0.548387097,0.53515625,0.183374083
10.232,0.546432063,0.529296875,0.171149144
10.24,0.544477028,0.525390625,0.158924205
10.248,0.542521994,0.515625,0.144254279
10.256,0.54056696,0.505859375,0.13202934
10.264,0.538611926,0.51953125,0.117359413
10.272,0.535679374,0.509765625,0.105134474
10.28,0.532746823,0.490234375,0.090464548
10.288,0.528836755,0.5,0.075794621
10.296,0.524926686,0.505859375,0.063569682
10.304,0.521994135,0.505859375,0.048899756
10.312,0.519061584,0.509765625,0.036674817
10.32,0.517106549,0.509765625,0.026894866
10.328,0.516129032,0.51953125,0.014669927
10.336,0.517106549,0.529296875,0.002444988
10.344,0.519061584,0.53515625,-0.009779951
10.352,0.522971652,0.529296875,-0.02200489
10.36,0.529814272,0.5390625,-0.034229829
10.368,0.538611926,0.529296875,-0.046454768
10.376,0.549364614,0.51953125,-0.056234719
10.384,0.561094819,0.515625,-0.06601467
10.392,0.572825024,0.509765625,-0.075794621
10.4,0.58455523,0.51953125,-0.085574572
10.408,0.595307918,0.529296875,-0.092909535
10.416,0.605083089,0.529296875,-0.100244499
10.424,0.61485826,0.51953125,-0.107579462
10.432,0.622678397,0.51953125,-0.114914425
10.44,0.629521017,0.53515625,-0.119804401
10.448,0.634408602,0.525390625,-0.124694377
10.456,0.638318671,0.51953125,-0.129584352
10.464,0.640273705,0.60546875,-0.134474328
10.472,0.641251222,0.904296875,-0.139364303
10.48,0.641251222,1.234375,-0.141809291
10.488,0.637341153,1.244140625,-0.144254279
10.496,0.632453568,0.84375,-0.146699267
10.504,0.626588465,0.55078125,-0.149144254
10.512,0.618768328,0.42578125,-0.149144254
10.52,0.609970674,0.435546875,-0.151589242
10.528,0.599217986,0.4453125,-0.151589242
10.536,0.589442815,0.44921875,-0.151589242
10.544,0.579667644,0.439453125,-0.15403423
10.552,0.571847507,0.419921875,-0.15403423
10.56,0.562072336,0.41015625,-0.15403423
10.568,0.553274682,0.42578125,-0.15403423
10.576,0.545454545,0.435546875,-0.15403423
10.584,0.537634409,0.4296875,-0.15403423
10.592,0.529814272,0.42578125,-0.151589242
10.6,0.522971652,0.42578125,-0.151589242
10.608,0.516129032,0.42578125,-0.149144254
10.616,0.51026393,0.4296875,-0.146699267
10.624,0.504398827,0.41015625,-0.146699267
10.632,0.499511241,0.41015625,-0.144254279
10.64,0.494623656,0.400390625,-0.144254279
10.648,0.490713587,0.390625,-0.141809291
10.656,0.486803519,0.375,-0.141809291
10.664,0.482893451,0.375,-0.141809291
10.672,0.478983382,0.375,-0.139364303
10.68,0.474095797,0.365234375,-0.139364303
10.688,0.469208211,0.37109375,-0.139364303
10.696,0.465298143,0.375,-0.139364303
10.704,0.460410557,0.375,-0.136919315
10.712,0.456500489,0.400390625,-0.136919315
10.72,0.45259042,0.4453125,-0.136919315
10.728,0.448680352,0.470703125,-0.134474328
10.736,0.444770283,0.484375,-0.134474328
10.744,0.439882698,0.494140625,-0.13202934
10.752,0.43597263,0.509765625,-0.13202934
10.76,0.430107527,0.51953125,-0.13202934
10.768,0.425219941,0.51953125,-0.129584352
10.776,0.419354839,0.529296875,-0.129584352
10.784,0.414467253,0.51953125,-0.129584352
10.792,0.408602151,0.525390625,-0.129584352
10.8,0.403714565,0.529296875,-0.127139364
10.808,0.398826979,0.53515625,-0.127139364
10.816,0.393939394,0.5390625,-0.127139364
10.824,0.389051808,0.525390625,-0.127139364
10.832,0.386119257,0.529296875,-0.127139364
10.84,0.383186706,0.51953125,-0.129584352
10.848,0.382209189,0.525390625,-0.129584352
10.856,0.380254154,0.51953125,-0.13202934
10.864,0.379276637,0.505859375,-0.134474328
10.872,0.37829912,0.505859375,-0.134474328
10.88,0.376344086,0.51953125,-0.136919315
10.888,0.374389052,0.53515625,-0.139364303
10.896,0.372434018,0.509765625,-0.141809291
10.904,0.370478983,0.509765625,-0.144254279
10.912,0.369501466,0.51953125,-0.146699267
10.92,0.367546432,0.529296875,-0.151589242
10.928,0.366568915,0.51953125,-0.15403423
10.936,0.365591398,0.51953125,-0.158924205
10.944,0.364613881,0.515625,-0.161369193
10.952,0.362658847,0.509765625,-0.166259169
10.96,0.361681329,0.5390625,-0.168704156
10.968,0.359726295,0.525390625,-0.173594132
10.976,0.358748778,0.509765625,-0.17603912
10.984,0.357771261,0.525390625,-0.180929095
10.992,0.357771261,0.525390625,-0.183374083
11,0.358748778,0.53515625,-0.185819071
11.008,0.362658847,0.509765625,-0.188264059
11.016,0.368523949,0.51953125,-0.190709046
11.024,0.37829912,0.51953125,-0.193154034
11.032,0.390029326,0.64453125,-0.193154034
11.04,0.405669599,0.96484375,-0.193154034
11.048,0.42228739,1.224609375,-0.193154034
11.056,0.438905181,1.09375,-0.193154034
11.064,0.458455523,0.8046875,-0.190709046
11.072,0.478983382,0.509765625,-0.190709046
11.08,0.501466276,0.400390625,-0.188264059
11.088,0.522971652,0.404296875,-0.185819071
11.096,0.544477028,0.39453125,-0.183374083
11.104,0.565982405,0.419921875,-0.180929095
11.112,0.585532747,0.390625,-0.178484108
11.12,0.603128055,0.416015625,-0.17603912
11.128,0.619745846,0.39453125,-0.171149144
11.136,0.635386119,0.37109375,-0.168704156
11.144,0.647116325,0.419921875,-0.166259169
11.152,0.655913978,0.4453125,-0.163814181
11.16,0.664711632,0.44921875,-0.158924205
11.168,0.670576735,0.419921875,-0.156479218
11.176,0.675464321,0.41015625,-0.15403423
11.184,0.677419355,0.439453125,-0.151589242
11.192,0.677419355,0.400390625,-0.149144254
11.2,0.674486804,0.435546875,-0.146699267
11.208,0.670576735,0.39453125,-0.144254279
11.216,0.664711632,0.416015625,-0.141809291
11.224,0.659824047,0.42578125,-0.139364303
11.232,0.653958944,0.380859375,-0.136919315
11.24,0.649071359,0.37109375,-0.136919315
11.248,0.643206256,0.404296875,-0.134474328
11.256,0.637341153,0.400390625,-0.13202934
11.264,0.630498534,0.39453125,-0.129584352
11.272,0.625610948,0.46484375,-0.129584352
11.28,0.620723363,0.509765625,-0.127139364
11.288,0.616813294,0.494140625,-0.122249389
11.296,0.612903226,0.529296875,-0.119804401
11.304,0.608993157,0.494140625,-0.114914425
11.312,0.605083089,0.470703125,-0.112469438
11.32,0.600195503,0.5390625,-0.105134474
11.328,0.594330401,0.490234375,-0.097799511
11.336,0.588465298,0.470703125,-0.090464548
11.344,0.583577713,0.455078125,-0.080684597
11.352,0.57771261,0.474609375,-0.073349633
11.36,0.57086999,0.4609375,-0.063569682
11.368,0.563049853,0.48046875,-0.056234719
11.376,0.556207234,0.44921875,-0.046454768
11.384,0.549364614,0.4609375,-0.034229829
11.392,0.542521994,0.470703125,-0.02200489
11.4,0.536656891,0.48046875,-0.009779951
11.408,0.529814272,0.474609375,0.002444988
11.416,0.523949169,0.494140625,0.017114914
11.424,0.517106549,0.509765625,0.029339853
11.432,0.511241447,0.505859375,0.041564792
11.44,0.505376344,0.529296875,0.056234719
11.448,0.500488759,0.515625,0.070904645
11.456,0.495601173,0.51953125,0.085574572
11.464,0.490713587,0.490234375,0.100244499
11.472,0.483870968,0.5,0.117359413
11.48,0.477028348,0.51953125,0.134474328
11.488,0.470185728,0.525390625,0.151589242
11.496,0.464320626,0.51953125,0.168704156
11.504,0.460410557,0.525390625,0.188264059
11.512,0.455522972,0.529296875,0.205378973
11.52,0.451612903,0.544921875,0.2200489
11.528,0.447702835,0.509765625,0.234718826
11.536,0.443792766,0.51953125,0.251833741
11.544,0.440860215,0.509765625,0.266503667
11.552,0.438905181,0.505859375,0.283618582
11.56,0.436950147,0.5,0.300733496
11.568,0.434995112,0.505859375,0.317848411
11.576,0.433040078,0.509765625,0.332518337
11.584,0.432062561,0.51953125,0.347188264
11.592,0.432062561,0.53515625,0.359413203
11.6,0.433040078,0.560546875,0.371638142
11.608,0.436950147,0.779296875,0.383863081
11.616,0.442815249,1.16015625,0.39608802
11.624,0.451612903,1.28515625,0.408312958
11.632,0.462365591,1.029296875,0.420537897
11.64,0.47311828,0.689453125,0.430317848
11.648,0.483870968,0.439453125,0.442542787
11.656,0.497556207,0.39453125,0.452322738
11.664,0.507331378,0.416015625,0.462102689
11.672,0.515151515,0.419921875,0.466992665
11.68,0.524926686,0.400390625,0.474327628
11.688,0.536656891,0.39453125,0.479217604
11.696,0.548387097,0.404296875,0.484107579
11.704,0.558162268,0.39453125,0.486552567
11.712,0.567937439,0.400390625,0.488997555
11.72,0.574780059,0.404296875,0.488997555
11.728,0.580645161,0.400390625,0.491442543
11.736,0.58455523,0.39453125,0.488997555
11.744,0.586510264,0.400390625,0.488997555
11.752,0.586510264,0.419921875,0.486552567
11.76,0.585532747,0.42578125,0.484107579
11.768,0.582600196,0.419921875,0.479217604
11.776,0.57771261,0.404296875,0.474327628
11.784,0.572825024,0.400390625,0.469437653
11.792,0.566959922,0.41015625,0.462102689
11.8,0.560117302,0.416015625,0.454767726
11.808,0.552297165,0.400390625,0.447432763
11.816,0.545454545,0.39453125,0.437652812
11.824,0.538611926,0.400390625,0.430317848
11.832,0.531769306,0.416015625,0.420537897
11.84,0.525904203,0.439453125,0.410757946
11.848,0.520039101,0.44921875,0.403422983
11.856,0.515151515,0.470703125,0.393643032
11.864,0.51026393,0.48046875,0.383863081
11.872,0.506353861,0.484375,0.37408313
11.88,0.502443793,0.494140625,0.364303178
11.888,0.498533724,0.5,0.35207824
11.896,0.494623656,0.505859375,0.342298289
11.904,0.490713587,0.515625,0.332518337
11.912,0.487781036,0.5,0.322738386
11.92,0.484848485,0.509765625,0.312958435
11.928,0.482893451,0.494140625,0.303178484
11.936,0.479960899,0.494140625,0.293398533
11.944,0.478005865,0.494140625,0.281173594
11.952,0.476050831,0.509765625,0.268948655
11.96,0.47311828,0.505859375,0.256723716
11.968,0.469208211,0.515625,0.246943765
11.976,0.464320626,0.5,0.232273839
11.984,0.45943304,0.509765625,0.2200489
11.992,0.454545455,0.490234375,0.207823961
12,0.450635386,0.490234375,0.195599022
12.008,0.445747801,0.48046875,0.183374083
12.016,0.441837732,0.484375,0.171149144
12.024,0.438905181,0.494140625,0.156479218
12.032,0.434995112,0.490234375,0.144254279
12.04,0.431085044,0.494140625,0.127139364
12.048,0.428152493,0.484375,0.112469438
12.056,0.424242424,0.484375,0.097799511
12.064,0.421309873,0.474609375,0.085574572
12.072,0.417399804,0.490234375,0.070904645
12.08,0.412512219,0.515625,0.058679707
12.088,0.408602151,0.505859375,0.04400978
12.096,0.404692082,0.5,0.029339853
12.104,0.401759531,0.51953125,0.017114914
12.112,0.398826979,0.51953125,0.002444988
12.12,0.396871945,0.51953125,-0.012224939
12.128,0.394916911,0.51953125,-0.026894866
12.136,0.393939394,0.53515625,-0.039119804
12.144,0.394916911,0.5390625,-0.053789731
12.152,0.396871945,0.529296875,-0.06601467
12.16,0.399804497,0.529296875,-0.078239609
12.168,0.405669599,0.51953125,-0.08801956
12.176,0.413489736,0.509765625,-0.097799511
12.184,0.424242424,0.505859375,-0.107579462
12.192,0.437927664,0.689453125,-0.117359413
12.2,0.453567937,1.064453125,-0.127139364
12.208,0.471163245,1.224609375,-0.136919315
12.216,0.490713587,0.994140625,-0.144254279
12.224,0.51026393,0.6796875,-0.151589242
12.232,0.530791789,0.439453125,-0.158924205
12.24,0.54740958,0.400390625,-0.163814181
12.248,0.561094819,0.404296875,-0.168704156
12.256,0.576735093,0.41015625,-0.173594132
12.264,0.591397849,0.4296875,-0.178484108
12.272,0.607038123,0.42578125,-0.183374083
12.28,0.620723363,0.435546875,-0.185819071
12.288,0.634408602,0.42578125,-0.188264059
12.296,0.64516129,0.416015625,-0.190709046
12.304,0.654936461,0.419921875,-0.190709046
12.312,0.661779081,0.4296875,-0.193154034
12.32,0.666666667,0.41015625,-0.193154034
12.328,0.668621701,0.400390625,-0.193154034
12.336,0.667644184,0.390625,-0.195599022
12.344,0.664711632,0.380859375,-0.195599022
12.352,0.659824047,0.390625,-0.193154034
12.36,0.654936461,0.375,-0.193154034
12.368,0.648093842,0.359375,-0.190709046
12.376,0.641251222,0.375,-0.190709046
12.384,0.635386119,0.375,-0.188264059
12.392,0.6285435,0.384765625,-0.188264059
12.4,0.62170088,0.380859375,-0.185819071
12.408,0.61485826,0.404296875,-0.185819071
12.416,0.608993157,0.42578125,-0.183374083
12.424,0.602150538,0.4296875,-0.180929095
12.432,0.596285435,0.470703125,-0.180929095
12.44,0.590420332,0.484375,-0.178484108
12.448,0.585532747,0.494140625,-0.17603912
12.456,0.579667644,0.5,-0.173594132
12.464,0.573802542,0.494140625,-0.171149144
12.472,0.566959922,0.505859375,-0.168704156
12.48,0.560117302,0.494140625,-0.166259169
12.488,0.552297165,0.494140625,-0.166259169
12.496,0.545454545,0.490234375,-0.163814181
12.504,0.537634409,0.494140625,-0.163814181
12.512,0.530791789,0.474609375,-0.163814181
12.52,0.523949169,0.490234375,-0.163814181
12.528,0.516129032,0.505859375,-0.163814181
12.536,0.508308895,0.525390625,-0.163814181
12.544,0.500488759,0.529296875,-0.161369193
12.552,0.493646139,0.51953125,-0.161369193
12.56,0.485826002,0.5390625,-0.161369193
12.568,0.478983382,0.53515625,-0.161369193
12.576,0.47311828,0.525390625,-0.161369193
12.584,0.467253177,0.515625,-0.161369193
12.592,0.461388074,0.515625,-0.163814181
12.6,0.455522972,0.505859375,-0.163814181
12.608,0.449657869,0.515625,-0.166259169
12.616,0.445747801,0.505859375,-0.166259169
12.624,0.440860215,0.494140625,-0.168704156
12.632,0.436950147,0.484375,-0.171149144
12.64,0.434017595,0.494140625,-0.173594132
12.648,0.431085044,0.509765625,-0.173594132
12.656,0.427174976,0.490234375,-0.17603912
12.664,0.423264907,0.494140625,-0.178484108
12.672,0.418377322,0.51953125,-0.180929095
12.68,0.413489736,0.51953125,-0.180929095
12.688,0.408602151,0.529296875,-0.183374083
12.696,0.404692082,0.51953125,-0.183374083
12.704,0.400782014,0.529296875,-0.185819071
12.712,0.397849462,0.515625,-0.185819071
12.72,0.395894428,0.505859375,-0.188264059
12.728,0.393939394,0.525390625,-0.188264059
12.736,0.392961877,0.53515625,-0.188264059
12.744,0.393939394,0.484375,-0.190709046
12.752,0.397849462,0.48046875,-0.190709046
12.76,0.403714565,0.51953125,-0.190709046
12.768,0.412512219,0.48046875,-0.188264059
12.776,0.424242424,0.470703125,-0.188264059
12.784,0.437927664,0.46484375,-0.185819071
12.792,0.453567937,0.484375,-0.185819071
12.8,0.471163245,0.509765625,-0.183374083
12.808,0.48973607,0.51953125,-0.183374083
12.816,0.508308895,0.51953125,-0.180929095
12.824,0.525904203,0.5,-0.180929095
12.832,0.543499511,0.51953125,-0.178484108
12.84,0.558162268,0.505859375,-0.17603912
12.848,0.569892473,0.5390625,-0.17603912
12.856,0.581622678,0.55078125,-0.173594132
12.864,0.593352884,0.505859375,-0.171149144
12.872,0.604105572,0.509765625,-0.168704156
12.88,0.612903226,0.494140625,-0.166259169
12.888,0.619745846,0.544921875,-0.163814181
12.896,0.624633431,0.7890625,-0.161369193
12.904,0.627565982,1.12890625,-0.158924205
12.912,0.627565982,1.169921875,-0.156479218
12.92,0.626588465,0.8203125,-0.15403423
12.928,0.622678397,0.5703125,-0.151589242
12.936,0.616813294,0.39453125,-0.149144254
12.944,0.610948192,0.37109375,-0.146699267
12.952,0.603128055,0.400390625,-0.144254279
12.96,0.596285435,0.41015625,-0.144254279
12.968,0.589442815,0.400390625,-0.141809291
12.976,0.582600196,0.390625,-0.139364303
12.984,0.574780059,0.404296875,-0.136919315
12.992,0.567937439,0.4296875,-0.136919315
13,0.561094819,0.384765625,-0.134474328
13.008,0.554252199,0.419921875,-0.13202934
13.016,0.548387097,0.42578125,-0.13202934
13.024,0.543499511,0.404296875,-0.129584352
13.032,0.537634409,0.42578125,-0.129584352
13.04,0.532746823,0.380859375,-0.127139364
13.048,0.527859238,0.384765625,-0.127139364
13.056,0.523949169,0.380859375,-0.124694377
13.064,0.520039101,0.39453125,-0.124694377
13.072,0.515151515,0.390625,-0.122249389
13.08,0.51026393,0.375,-0.119804401
13.088,0.506353861,0.400390625,-0.117359413
13.096,0.502443793,0.416015625,-0.112469438
13.104,0.498533724,0.384765625,-0.107579462
13.112,0.493646139,0.310546875,-0.105134474
13.12,0.48973607,0.37109375,-0.100244499
13.128,0.484848485,0.39453125,-0.095354523
13.136,0.480938416,0.455078125,-0.090464548
13.144,0.477028348,0.470703125,-0.083129584
13.152,0.472140762,0.41015625,-0.078239609
13.16,0.467253177,0.4609375,-0.068459658
13.168,0.462365591,0.44921875,-0.061124694
13.176,0.457478006,0.474609375,-0.051344743
13.184,0.451612903,0.505859375,-0.041564792
13.192,0.446725318,0.494140625,-0.031784841
13.2,0.440860215,0.51953125,-0.02200489
13.208,0.436950147,0.544921875,-0.009779951
13.216,0.432062561,0.525390625,0.004889976
13.224,0.428152493,0.515625,0.019559902
13.232,0.425219941,0.515625,0.034229829
13.24,0.42228739,0.525390625,0.051344743
13.248,0.419354839,0.494140625,0.068459658
13.256,0.416422287,0.515625,0.085574572
13.264,0.413489736,0.51953125,0.105134474
13.272,0.409579668,0.509765625,0.122249389
13.28,0.406647116,0.484375,0.136919315
13.288,0.403714565,0.490234375,0.151589242
13.296,0.401759531,0.494140625,0.168704156
13.304,0.398826979,0.5,0.183374083
13.312,0.395894428,0.51953125,0.19804401
13.32,0.39198436,0.51953125,0.212713936
13.328,0.388074291,0.509765625,0.227383863
13.336,0.384164223,0.494140625,0.24205379
13.344,0.381231672,0.509765625,0.254278729
13.352,0.37829912,0.515625,0.266503667
13.36,0.374389052,0.515625,0.278728606
13.368,0.3714565,0.515625,0.288508557
13.376,0.368523949,0.5,0.300733496
13.384,0.365591398,0.494140625,0.310513447
13.392,0.362658847,0.5,0.320293399
13.4,0.360703812,0.515625,0.33007335
13.408,0.358748778,0.66015625,0.342298289
13.416,0.357771261,0.994140625,0.349633252
13.424,0.357771261,1.19921875,0.359413203
13.432,0.359726295,1.013671875,0.369193154
13.44,0.362658847,0.71484375,0.376528117
13.448,0.367546432,0.4453125,0.383863081
13.456,0.375366569,0.390625,0.391198044
13.464,0.387096774,0.404296875,0.39608802
13.472,0.399804497,0.41015625,0.403422983
13.48,0.41544477,0.404296875,0.405867971
13.488,0.434017595,0.400390625,0.410757946
13.496,0.45259042,0.400390625,0.415647922
13.504,0.47311828,0.41015625,0.41809291
13.512,0.493646139,0.400390625,0.41809291
13.52,0.514173998,0.39453125,0.420537897
13.528,0.53372434,0.400390625,0.41809291
13.536,0.550342131,0.41015625,0.41809291
13.544,0.56402737,0.400390625,0.415647922
13.552,0.578690127,0.400390625,0.413202934
13.56,0.593352884,0.404296875,0.405867971
13.568,0.607038123,0.39453125,0.400977995
13.576,0.618768328,0.35546875,0.393643032
13.584,0.6285435,0.35546875,0.386308068
13.592,0.635386119,0.37109375,0.376528117
13.6,0.640273705,0.375,0.369193154
13.608,0.642228739,0.375,0.361858191
13.616,0.641251222,0.39453125,0.354523227
13.624,0.638318671,0.416015625,0.347188264
13.632,0.634408602,0.42578125,0.337408313
13.64,0.629521017,0.439453125,0.327628362
13.648,0.623655914,0.470703125,0.320293399
13.656,0.616813294,0.470703125,0.310513447
13.664,0.608993157,0.470703125,0.303178484
13.672,0.602150538,0.470703125,0.295843521
13.68,0.595307918,0.484375,0.288508557
13.688,0.589442815,0.490234375,0.281173594
13.696,0.582600196,0.48046875,0.273838631
13.704,0.576735093,0.474609375,0.266503667
13.712,0.566959922,0.484375,0.259168704
13.72,0.556207234,0.484375,0.249388753
13.728,0.549364614,0.48046875,0.24205379
13.736,0.543499511,0.494140625,0.232273839
13.744,0.538611926,0.505859375,0.224938875
13.752,0.53372434,0.51953125,0.217603912
13.76,0.528836755,0.505859375,0.207823961
13.768,0.523949169,0.494140625,0.200488998
13.776,0.519061584,0.484375,0.193154034
13.784,0.514173998,0.48046875,0.183374083
13.792,0.51026393,0.484375,0.17603912
13.8,0.506353861,0.494140625,0.163814181
13.808,0.502443793,0.474609375,0.15403423
13.816,0.497556207,0.4609375,0.144254279
13.824,0.492668622,0.4609375,0.134474328
13.832,0.486803519,0.470703125,0.124694377
13.84,0.480938416,0.484375,0.114914425
13.848,0.477028348,0.490234375,0.102689487
13.856,0.472140762,0.490234375,0.090464548
13.864,0.467253177,0.5,0.078239609
13.872,0.462365591,0.505859375,0.06601467
13.88,0.458455523,0.48046875,0.051344743
13.888,0.454545455,0.470703125,0.036674817
13.896,0.450635386,0.48046875,0.02200489
13.904,0.446725318,0.490234375,0.007334963
13.912,0.442815249,0.494140625,-0.004889976
13.92,0.438905181,0.494140625,-0.017114914
13.928,0.434017595,0.494140625,-0.029339853
13.936,0.431085044,0.5,-0.041564792
13.944,0.428152493,0.494140625,-0.053789731
13.952,0.425219941,0.490234375,-0.06601467
13.96,0.423264907,0.490234375,-0.078239609
13.968,0.42228739,0.494140625,-0.090464548
13.976,0.423264907,0.5,-0.100244499
13.984,0.426197458,0.505859375,-0.107579462
13.992,0.430107527,0.505859375,-0.117359413
14,0.437927664,0.509765625,-0.124694377
14.008,0.447702835,0.515625,-0.129584352
14.016,0.458455523,0.509765625,-0.136919315
14.024,0.470185728,0.494140625,-0.144254279
14.032,0.482893451,0.494140625,-0.149144254
14.04,0.494623656,0.505859375,-0.15403423
14.048,0.504398827,0.505859375,-0.158924205
14.056,0.515151515,0.560546875,-0.163814181
14.064,0.525904203,0.82421875,-0.168704156
14.072,0.535679374,1.1796875,-0.171149144
14.08,0.544477028,1.224609375,-0.173594132
14.088,0.552297165,0.884765625,-0.17603912
14.096,0.557184751,0.564453125,-0.178484108
14.104,0.562072336,0.416015625,-0.178484108
14.112,0.56402737,0.400390625,-0.178484108
14.12,0.565004888,0.4296875,-0.178484108
14.128,0.56402737,0.42578125,-0.178484108
14.136,0.562072336,0.416015625,-0.178484108
14.144,0.557184751,0.41015625,-0.178484108
14.152,0.552297165,0.42578125,-0.17603912
14.16,0.546432063,0.419921875,-0.17603912
14.168,0.539589443,0.41015625,-0.17603912
14.176,0.532746823,0.404296875,-0.173594132
14.184,0.525904203,0.419921875,-0.173594132
14.192,0.520039101,0.41015625,-0.171149144
14.2,0.514173998,0.416015625,-0.171149144
14.208,0.508308895,0.42578125,-0.168704156
14.216,0.502443793,0.400390625,-0.168704156
14.224,0.495601173,0.39453125,-0.166259169
14.232,0.48973607,0.400390625,-0.166259169
14.24,0.483870968,0.390625,-0.163814181
14.248,0.478983382,0.380859375,-0.161369193
14.256,0.47311828,0.375,-0.161369193
14.264,0.468230694,0.375,-0.158924205
14.272,0.463343109,0.37109375,-0.156479218
14.28,0.458455523,0.359375,-0.156479218
14.288,0.45259042,0.365234375,-0.15403423
14.296,0.446725318,0.39453125,-0.15403423
14.304,0.439882698,0.404296875,-0.151589242
14.312,0.434017595,0.42578125,-0.151589242
14.32,0.42913001,0.46484375,-0.149144254
14.328,0.423264907,0.494140625,-0.149144254
14.336,0.419354839,0.515625,-0.146699267
14.344,0.41544477,0.51953125,-0.146699267
14.352,0.411534702,0.51953125,-0.144254279
14.36,0.406647116,0.5,-0.144254279
14.368,0.401759531,0.515625,-0.141809291
14.376,0.396871945,0.5390625,-0.141809291
14.384,0.392961877,0.55078125,-0.139364303
14.392,0.388074291,0.5546875,-0.139364303
14.4,0.384164223,0.53515625,-0.139364303
14.408,0.379276637,0.525390625,-0.139364303
14.416,0.374389052,0.515625,-0.136919315
14.424,0.369501466,0.525390625,-0.139364303
14.432,0.364613881,0.51953125,-0.139364303
14.44,0.360703812,0.525390625,-0.139364303
14.448,0.357771261,0.505859375,-0.141809291
14.456,0.353861193,0.5,-0.144254279
14.464,0.349951124,0.509765625,-0.144254279
14.472,0.347018573,0.51953125,-0.146699267
14.48,0.343108504,0.505859375,-0.149144254
14.488,0.340175953,0.509765625,-0.151589242
14.496,0.338220919,0.525390625,-0.15403423
14.504,0.337243402,0.560546875,-0.158924205
14.512,0.335288368,0.544921875,-0.161369193
14.52,0.33431085,0.525390625,-0.163814181
14.528,0.333333333,0.529296875,-0.168704156
14.536,0.332355816,0.55078125,-0.171149144
14.544,0.332355816,0.509765625,-0.17603912
14.552,0.331378299,0.494140625,-0.178484108
14.56,0.330400782,0.525390625,-0.180929095
14.568,0.329423265,0.494140625,-0.183374083
14.576,0.327468231,0.525390625,-0.185819071
14.584,0.327468231,0.5390625,-0.188264059
14.592,0.328445748,0.509765625,-0.190709046
14.6,0.330400782,0.490234375,-0.193154034
14.608,0.335288368,0.525390625,-0.195599022
14.616,0.343108504,0.505859375,-0.195599022
14.624,0.353861193,0.494140625,-0.19804401
14.632,0.367546432,0.525390625,-0.19804401
14.64,0.382209189,0.544921875,-0.19804401
14.648,0.397849462,0.5546875,-0.19804401
14.656,0.416422287,0.5,-0.19804401
14.664,0.437927664,0.48046875,-0.195599022
14.672,0.45943304,0.505859375,-0.195599022
14.68,0.480938416,0.5390625,-0.193154034
14.688,0.502443793,0.490234375,-0.190709046
14.696,0.521994135,0.484375,-0.188264059
14.704,0.54056696,0.505859375,-0.185819071
14.712,0.558162268,0.51953125,-0.183374083
14.72,0.574780059,0.455078125,-0.180929095
14.728,0.589442815,0.484375,-0.178484108
14.736,0.600195503,0.509765625,-0.17603912
14.744,0.608993157,0.46484375,-0.173594132
14.752,0.616813294,0.4609375,-0.171149144
14.76,0.623655914,0.494140625,-0.168704156
14.768,0.627565982,0.5,-0.166259169
14.776,0.6285435,0.6953125,-0.163814181
14.784,0.627565982,1.029296875,-0.161369193
14.792,0.625610948,1.28515625,-0.158924205
14.8,0.620723363,1.080078125,-0.156479218
14.808,0.61485826,0.75390625,-0.15403423
14.816,0.60801564,0.490234375,-0.15403423
14.824,0.601173021,0.400390625,-0.151589242
14.832,0.594330401,0.41015625,-0.149144254
14.84,0.588465298,0.44921875,-0.146699267
14.848,0.581622678,0.404296875,-0.144254279
14.856,0.576735093,0.384765625,-0.141809291
14.864,0.571847507,0.44921875,-0.139364303
14.872,0.566959922,0.404296875,-0.136919315
14.88,0.562072336,0.380859375,-0.13202934
14.888,0.557184751,0.37109375,-0.129584352
14.896,0.552297165,0.404296875,-0.124694377
14.904,0.546432063,0.39453125,-0.119804401
14.912,0.541544477,0.4296875,-0.112469438
14.92,0.535679374,0.404296875,-0.105134474
14.928,0.529814272,0.39453125,-0.097799511
14.936,0.522971652,0.384765625,-0.090464548
14.944,0.518084066,0.4296875,-0.083129584
14.952,0.512218964,0.439453125,-0.075794621
14.96,0.507331378,0.39453125,-0.068459658
14.968,0.502443793,0.416015625,-0.058679707
14.976,0.497556207,0.42578125,-0.046454768
14.984,0.491691105,0.416015625,-0.034229829
14.992,0.485826002,0.404296875,-0.019559902
15,0.479960899,0.380859375,-0.004889976
15.008,0.474095797,0.380859375,0.012224939
15.016,0.468230694,0.41015625,0.029339853
15.024,0.463343109,0.4453125,0.046454768
15.032,0.458455523,0.474609375,0.061124694
15.04,0.453567937,0.494140625,0.078239609
15.048,0.447702835,0.515625,0.092909535
15.056,0.442815249,0.51953125,0.11002445
15.064,0.436950147,0.51953125,0.127139364
15.072,0.431085044,0.51953125,0.144254279
15.08,0.426197458,0.5390625,0.161369193
15.088,0.420332356,0.544921875,0.180929095
15.096,0.413489736,0.529296875,0.19804401
15.104,0.407624633,0.55078125,0.215158924
15.112,0.401759531,0.5390625,0.229828851
15.12,0.395894428,0.5390625,0.246943765
15.128,0.391006843,0.515625,0.26405868
15.136,0.387096774,0.509765625,0.278728606
15.144,0.384164223,0.509765625,0.295843521
15.152,0.380254154,0.509765625,0.312958435
15.16,0.377321603,0.515625,0.327628362
15.168,0.373411535,0.509765625,0.344743276
15.176,0.369501466,0.51953125,0.359413203
15.184,0.365591398,0.505859375,0.37408313
15.192,0.361681329,0.494140625,0.383863081
15.2,0.357771261,0.505859375,0.39608802
15.208,0.35483871,0.494140625,0.405867971
15.216,0.351906158,0.490234375,0.415647922
15.224,0.348973607,0.494140625,0.420537897
15.232,0.346041056,0.470703125,0.427872861
15.24,0.344086022,0.474609375,0.430317848
15.248,0.34115347,0.490234375,0.435207824
15.256,0.337243402,0.51953125,0.435207824
15.264,0.333333333,0.51953125,0.437652812
15.272,0.329423265,0.515625,0.437652812
15.28,0.324535679,0.51953125,0.4400978
15.288,0.320625611,0.51953125,0.435207824
15.296,0.31769306,0.51953125,0.432762836
15.304,0.315738025,0.505859375,0.425427873
15.312,0.314760508,0.509765625,0.41809291
15.32,0.315738025,0.490234375,0.408312958
15.328,0.31769306,0.474609375,0.398533007
15.336,0.322580645,0.470703125,0.386308068
15.344,0.328445748,0.474609375,0.37408313
15.352,0.337243402,0.4609375,0.364303178
15.36,0.348973607,0.455078125,0.35207824
15.368,0.363636364,0.474609375,0.342298289
15.376,0.379276637,0.48046875,0.33007335
15.384,0.396871945,0.470703125,0.320293399
15.392,0.41544477,0.470703125,0.30806846
15.4,0.434017595,0.470703125,0.295843521
15.408,0.453567937,0.46484375,0.283618582
15.416,0.472140762,0.48046875,0.273838631
15.424,0.490713587,0.48046875,0.261613692
15.432,0.505376344,0.515625,0.251833741
15.44,0.519061584,0.529296875,0.24205379
15.448,0.532746823,0.5390625,0.232273839
15.456,0.545454545,0.595703125,0.224938875
15.464,0.558162268,0.84375,0.215158924
15.472,0.568914956,1.193359375,0.205378973
15.48,0.57771261,1.21484375,0.195599022
15.488,0.583577713,0.833984375,0.188264059
15.496,0.586510264,0.525390625,0.178484108
15.504,0.587487781,0.380859375,0.171149144
15.512,0.585532747,0.365234375,0.163814181
15.52,0.582600196,0.400390625,0.15403423
15.528,0.578690127,0.384765625,0.146699267
15.536,0.573802542,0.375,0.139364303
15.544,0.568914956,0.39453125,0.13202934
15.552,0.563049853,0.416015625,0.124694377
15.56,0.556207234,0.42578125,0.114914425
15.568,0.550342131,0.4296875,0.107579462
15.576,0.544477028,0.42578125,0.100244499
15.584,0.538611926,0.42578125,0.092909535
15.592,0.53372434,0.435546875,0.085574572
15.6,0.527859238,0.4453125,0.080684597
15.608,0.522971652,0.439453125,0.073349633
15.616,0.518084066,0.42578125,0.06601467
15.624,0.514173998,0.416015625,0.058679707
15.632,0.511241447,0.380859375,0.048899756
15.64,0.509286413,0.365234375,0.041564792
15.648,0.508308895,0.359375,0.034229829
15.656,0.507331378,0.349609375,0.024449878
15.664,0.506353861,0.33984375,0.017114914
15.672,0.504398827,0.33984375,0.007334963
15.68,0.502443793,0.349609375,0
15.688,0.500488759,0.37109375,-0.007334963
15.696,0.49657869,0.404296875,-0.014669927
15.704,0.493646139,0.4296875,-0.02200489
15.712,0.48973607,0.46484375,-0.029339853
15.72,0.485826002,0.494140625,-0.039119804
15.728,0.481915934,0.5,-0.046454768
15.736,0.478005865,0.505859375,-0.053789731
15.744,0.47311828,0.51953125,-0.061124694
15.752,0.469208211,0.525390625,-0.06601467
15.76,0.470185728,0.53515625,-0.073349633
15.768,0.475073314,0.5390625,-0.080684597
15.776,0.474095797,0.525390625,-0.08801956
15.784,0.470185728,0.515625,-0.095354523
15.792,0.464320626,0.5,-0.102689487
15.8,0.457478006,0.494140625,-0.107579462
15.808,0.449657869,0.484375,-0.114914425
15.816,0.441837732,0.490234375,-0.122249389
15.824,0.434017595,0.494140625,-0.127139364
15.832,0.427174976,0.509765625,-0.134474328
15.84,0.42228739,0.509765625,-0.139364303
15.848,0.41544477,0.509765625,-0.144254279
15.856,0.409579668,0.51953125,-0.149144254
15.864,0.403714565,0.51953125,-0.15403423
15.872,0.396871945,0.525390625,-0.158924205
15.88,0.390029326,0.51953125,-0.163814181
15.888,0.382209189,0.525390625,-0.168704156
15.896,0.375366569,0.51953125,-0.171149144
15.904,0.369501466,0.525390625,-0.17603912
15.912,0.363636364,0.529296875,-0.178484108
15.92,0.357771261,0.51953125,-0.183374083
15.928,0.352883675,0.5,-0.185819071
15.936,0.34799609,0.490234375,-0.188264059
15.944,0.345063539,0.509765625,-0.190709046
15.952,0.34115347,0.51953125,-0.195599022
15.96,0.337243402,0.51953125,-0.19804401
15.968,0.333333333,0.509765625,-0.200488998
15.976,0.329423265,0.515625,-0.202933985
15.984,0.327468231,0.51953125,-0.205378973
15.992,0.325513196,0.51953125,-0.205378973
16,0.324535679,0.51953125,-0.207823961
16.008,0.325513196,0.51953125,-0.207823961
16.016,0.327468231,0.53515625,-0.207823961
16.024,0.331378299,0.51953125,-0.210268949
16.032,0.338220919,0.544921875,-0.210268949
16.04,0.346041056,0.525390625,-0.210268949
16.048,0.357771261,0.509765625,-0.212713936
16.056,0.372434018,0.5,-0.212713936
16.064,0.389051808,0.505859375,-0.212713936
16.072,0.407624633,0.5,-0.212713936
16.08,0.427174976,0.509765625,-0.212713936
16.088,0.446725318,0.505859375,-0.210268949
16.096,0.46627566,0.509765625,-0.210268949
16.104,0.485826002,0.515625,-0.207823961
16.112,0.504398827,0.509765625,-0.207823961
16.12,0.522971652,0.51953125,-0.205378973
16.128,0.539589443,0.53515625,-0.202933985
16.136,0.554252199,0.58984375,-0.200488998
16.144,0.565004888,0.865234375,-0.19804401
16.152,0.576735093,1.224609375,-0.195599022
16.16,0.586510264,1.25390625,-0.193154034
16.168,0.594330401,0.91015625,-0.190709046
16.176,0.600195503,0.595703125,-0.188264059
16.184,0.603128055,0.42578125,-0.185819071
16.192,0.604105572,0.416015625,-0.183374083
16.2,0.602150538,0.4453125,-0.180929095
16.208,0.599217986,0.44921875,-0.17603912
16.216,0.594330401,0.4453125,-0.173594132
16.224,0.588465298,0.435546875,-0.171149144
16.232,0.582600196,0.435546875,-0.171149144
16.24,0.576735093,0.42578125,-0.168704156
16.248,0.569892473,0.42578125,-0.166259169
16.256,0.56402737,0.42578125,-0.166259169
16.264,0.558162268,0.42578125,-0.163814181
16.272,0.552297165,0.416015625,-0.163814181
16.28,0.546432063,0.400390625,-0.161369193
16.288,0.541544477,0.439453125,-0.161369193
16.296,0.537634409,0.4453125,-0.158924205
16.304,0.53372434,0.419921875,-0.158924205
16.312,0.530791789,0.400390625,-0.158924205
16.32,0.527859238,0.41015625,-0.158924205
16.328,0.523949169,0.419921875,-0.158924205
16.336,0.520039101,0.42578125,-0.158924205
16.344,0.517106549,0.37109375,-0.158924205
16.352,0.513196481,0.400390625,-0.158924205
16.36,0.509286413,0.42578125,-0.158924205
16.368,0.504398827,0.404296875,-0.161369193
16.376,0.498533724,0.41015625,-0.161369193
16.384,0.493646139,0.455078125,-0.161369193
16.392,0.487781036,0.490234375,-0.161369193
16.4,0.482893451,0.490234375,-0.161369193
16.408,0.477028348,0.5,-0.161369193
16.416,0.472140762,0.494140625,-0.161369193
16.424,0.46627566,0.5546875,-0.161369193
16.432,0.462365591,0.5390625,-0.161369193
16.44,0.458455523,0.525390625,-0.161369193
16.448,0.454545455,0.5,-0.158924205
16.456,0.449657869,0.529296875,-0.156479218
16.464,0.445747801,0.53515625,-0.156479218
16.472,0.441837732,0.515625,-0.15403423
16.48,0.437927664,0.490234375,-0.151589242
16.488,0.434017595,0.494140625,-0.151589242
16.496,0.42913001,0.505859375,-0.149144254
16.504,0.424242424,0.51953125,-0.146699267
16.512,0.418377322,0.5,-0.144254279
16.52,0.413489736,0.484375,-0.144254279
16.528,0.407624633,0.46484375,-0.141809291
16.536,0.403714565,0.515625,-0.141809291
16.544,0.399804497,0.5,-0.139364303
16.552,0.394916911,0.48046875,-0.139364303
16.56,0.390029326,0.5,-0.139364303
16.568,0.384164223,0.529296875,-0.139364303
16.576,0.379276637,0.51953125,-0.139364303
16.584,0.374389052,0.490234375,-0.141809291
16.592,0.370478983,0.44921875,-0.141809291
16.6,0.367546432,0.53515625,-0.144254279
16.608,0.364613881,0.560546875,-0.144254279
16.616,0.361681329,0.46484375,-0.146699267
16.624,0.357771261,0.505859375,-0.149144254
16.632,0.35483871,0.5,-0.151589242
16.64,0.352883675,0.51953125,-0.151589242
16.648,0.349951124,0.515625,-0.15403423
16.656,0.346041056,0.484375,-0.156479218
16.664,0.343108504,0.515625,-0.156479218
16.672,0.34115347,0.474609375,-0.158924205
16.68,0.340175953,0.46484375,-0.158924205
16.688,0.34115347,0.51953125,-0.156479218
16.696,0.344086022,0.5,-0.156479218
16.704,0.348973607,0.505859375,-0.156479218
16.712,0.356793744,0.490234375,-0.15403423
16.72,0.367546432,0.494140625,-0.151589242
16.728,0.379276637,0.509765625,-0.146699267
16.736,0.39198436,0.494140625,-0.141809291
16.744,0.407624633,0.474609375,-0.136919315
16.752,0.426197458,0.5,-0.129584352
16.76,0.445747801,0.51953125,-0.122249389
16.768,0.46627566,0.505859375,-0.112469438
16.776,0.485826002,0.490234375,-0.100244499
16.784,0.506353861,0.494140625,-0.090464548
16.792,0.524926686,0.5,-0.078239609
16.8,0.543499511,0.505859375,-0.06601467
16.808,0.56402737,0.509765625,-0.053789731
16.816,0.581622678,0.5,-0.041564792
16.824,0.593352884,0.509765625,-0.026894866
16.832,0.603128055,0.5,-0.009779951
16.84,0.609970674,0.5,0.007334963
16.848,0.617790811,0.505859375,0.024449878
16.856,0.622678397,0.51953125,0.041564792
16.864,0.625610948,0.515625,0.058679707
16.872,0.625610948,0.525390625,0.075794621
16.88,0.622678397,0.515625,0.092909535
16.888,0.618768328,0.509765625,0.112469438
16.896,0.612903226,0.525390625,0.129584352
16.904,0.605083089,0.51953125,0.151589242
16.912,0.596285435,0.515625,0.171149144
16.92,0.587487781,0.509765625,0.193154034
16.928,0.579667644,0.51953125,0.212713936
16.936,0.572825024,0.525390625,0.232273839
16.944,0.565982405,0.51953125,0.254278729
16.952,0.559139785,0.51953125,0.271393643
16.96,0.553274682,0.515625,0.290953545
16.968,0.548387097,0.5,0.305623472
16.976,0.542521994,0.490234375,0.322738386
16.984,0.538611926,0.505859375,0.339853301
16.992,0.53372434,0.560546875,0.354523227
17,0.529814272,0.798828125,0.369193154
17.008,0.523949169,1.189453125,0.386308068
17.016,0.518084066,1.2890625,0.398533007
17.024,0.513196481,0.96484375,0.413202934
17.032,0.507331378,0.634765625,0.422982885
17.04,0.502443793,0.41015625,0.435207824
17.048,0.497556207,0.380859375,0.444987775
17.056,0.492668622,0.419921875,0.454767726
17.064,0.486803519,0.42578125,0.462102689
17.072,0.481915934,0.404296875,0.471882641
17.08,0.476050831,0.400390625,0.476772616
17.088,0.471163245,0.400390625,0.484107579
17.096,0.465298143,0.390625,0.486552567
17.104,0.460410557,0.375,0.491442543
17.112,0.455522972,0.375,0.491442543
17.12,0.449657869,0.390625,0.493887531
17.128,0.444770283,0.400390625,0.491442543
17.136,0.440860215,0.400390625,0.491442543
17.144,0.434995112,0.400390625,0.488997555
17.152,0.42913001,0.404296875,0.484107579
17.16,0.424242424,0.390625,0.479217604
17.168,0.418377322,0.400390625,0.474327628
17.176,0.414467253,0.384765625,0.466992665
17.184,0.409579668,0.380859375,0.459657702
17.192,0.405669599,0.359375,0.452322738
17.2,0.401759531,0.35546875,0.447432763
17.208,0.396871945,0.37109375,0.437652812
17.216,0.393939394,0.359375,0.427872861
17.224,0.390029326,0.35546875,0.41809291
17.232,0.388074291,0.359375,0.405867971
17.24,0.386119257,0.375,0.39608802
17.248,0.383186706,0.416015625,0.383863081
17.256,0.380254154,0.4609375,0.371638142
17.264,0.377321603,0.484375,0.361858191
17.272,0.374389052,0.5,0.349633252
17.28,0.372434018,0.494140625,0.339853301
17.288,0.370478983,0.490234375,0.327628362
17.296,0.368523949,0.505859375,0.317848411
17.304,0.365591398,0.51953125,0.30806846
17.312,0.363636364,0.51953125,0.298288509
17.32,0.360703812,0.5,0.28606357
17.328,0.359726295,0.494140625,0.276283619
17.336,0.357771261,0.5,0.266503667
17.344,0.355816227,0.494140625,0.256723716
17.352,0.35483871,0.490234375,0.246943765
17.36,0.352883675,0.490234375,0.237163814
17.368,0.351906158,0.48046875,0.224938875
17.376,0.349951124,0.48046875,0.215158924
17.384,0.348973607,0.484375,0.200488998
17.392,0.34799609,0.490234375,0.188264059
17.4,0.346041056,0.484375,0.173594132
17.408,0.345063539,0.494140625,0.158924205
17.416,0.343108504,0.48046875,0.144254279
17.424,0.342130987,0.48046875,0.127139364
17.432,0.34115347,0.484375,0.112469438
17.44,0.34115347,0.48046875,0.097799511
17.448,0.340175953,0.484375,0.080684597
17.456,0.338220919,0.494140625,0.06601467
17.464,0.335288368,0.51953125,0.051344743
17.472,0.332355816,0.525390625,0.034229829
17.48,0.329423265,0.51953125,0.017114914
17.488,0.326490714,0.509765625,0
17.496,0.324535679,0.509765625,-0.017114914
17.504,0.322580645,0.51953125,-0.034229829
17.512,0.321603128,0.525390625,-0.048899756
17.52,0.320625611,0.53515625,-0.063569682
17.528,0.320625611,0.5390625,-0.075794621
17.536,0.322580645,0.515625,-0.090464548
17.544,0.326490714,0.515625,-0.105134474
17.552,0.331378299,0.515625,-0.119804401
17.56,0.340175953,0.51953125,-0.13202934
17.568,0.351906158,0.51953125,-0.144254279
17.576,0.365591398,0.51953125,-0.156479218
17.584,0.383186706,0.509765625,-0.168704156
17.592,0.402737048,0.505859375,-0.178484108
17.6,0.423264907,0.5703125,-0.188264059
17.608,0.444770283,0.84375,-0.195599022
17.616,0.467253177,1.228515625,-0.202933985
17.624,0.48973607,1.279296875,-0.210268949
17.632,0.509286413,0.900390625,-0.215158924
17.64,0.52688172,0.58984375,-0.2200489
17.648,0.546432063,0.416015625,-0.224938875
17.656,0.566959922,0.400390625,-0.227383863
17.664,0.587487781,0.439453125,-0.229828851
17.672,0.606060606,0.4453125,-0.232273839
17.68,0.623655914,0.4296875,-0.234718826
17.688,0.639296188,0.42578125,-0.234718826
17.696,0.653958944,0.4296875,-0.234718826
17.704,0.664711632,0.42578125,-0.234718826
17.712,0.673509286,0.42578125,-0.232273839
17.72,0.679374389,0.41015625,-0.229828851
17.728,0.681329423,0.404296875,-0.229828851
17.736,0.680351906,0.404296875,-0.227383863
17.744,0.678396872,0.400390625,-0.222493888
17.752,0.674486804,0.39453125,-0.2200489
17.76,0.668621701,0.384765625,-0.217603912
17.768,0.661779081,0.400390625,-0.215158924
17.776,0.654936461,0.41015625,-0.212713936
17.784,0.647116325,0.416015625,-0.210268949
17.792,0.639296188,0.42578125,-0.207823961
17.8,0.631476051,0.439453125,-0.205378973
17.808,0.622678397,0.42578125,-0.202933985
17.816,0.612903226,0.404296875,-0.200488998
17.824,0.606060606,0.416015625,-0.19804401
17.832,0.600195503,0.42578125,-0.19804401
17.84,0.595307918,0.4453125,-0.195599022
17.848,0.592375367,0.4609375,-0.193154034
17.856,0.588465298,0.474609375,-0.190709046
17.864,0.58455523,0.494140625,-0.190709046
17.872,0.580645161,0.505859375,-0.188264059
17.88,0.574780059,0.494140625,-0.185819071
17.888,0.569892473,0.484375,-0.183374083
17.896,0.56402737,0.490234375,-0.183374083
17.904,0.557184751,0.494140625,-0.180929095
17.912,0.549364614,0.484375,-0.178484108
17.92,0.541544477,0.509765625,-0.17603912
17.928,0.534701857,0.51953125,-0.17603912
17.936,0.528836755,0.525390625,-0.173594132
17.944,0.521994135,0.51953125,-0.171149144
17.952,0.516129032,0.51953125,-0.171149144
17.96,0.51026393,0.515625,-0.168704156
17.968,0.50342131,0.51953125,-0.168704156
17.976,0.498533724,0.494140625,-0.166259169
17.984,0.494623656,0.484375,-0.166259169
17.992,0.490713587,0.490234375,-0.166259169
18,0.487781036,0.494140625,-0.163814181
18.008,0.484848485,0.470703125,-0.163814181
18.016,0.481915934,0.48046875,-0.163814181
18.024,0.478983382,0.494140625,-0.163814181
18.032,0.476050831,0.494140625,-0.163814181
18.04,0.47311828,0.490234375,-0.166259169
18.048,0.469208211,0.5,-0.166259169
18.056,0.463343109,0.515625,-0.168704156
18.064,0.457478006,0.5,-0.168704156
18.072,0.451612903,0.494140625,-0.171149144
18.08,0.445747801,0.529296875,-0.173594132
18.088,0.438905181,0.515625,-0.17603912
18.096,0.433040078,0.509765625,-0.17603912
18.104,0.426197458,0.51953125,-0.178484108
18.112,0.420332356,0.515625,-0.178484108
18.12,0.414467253,0.5,-0.180929095
18.128,0.410557185,0.529296875,-0.180929095
18.136,0.406647116,0.515625,-0.183374083
18.144,0.401759531,0.505859375,-0.183374083
18.152,0.397849462,0.494140625,-0.185819071
18.16,0.394916911,0.505859375,-0.185819071
18.168,0.392961877,0.494140625,-0.188264059
18.176,0.39198436,0.51953125,-0.188264059
18.184,0.394916911,0.494140625,-0.188264059
18.192,0.399804497,0.515625,-0.188264059
18.2,0.406647116,0.505859375,-0.188264059
18.208,0.416422287,0.494140625,-0.188264059
18.216,0.42913001,0.5703125,-0.188264059
18.224,0.442815249,0.814453125,-0.185819071
18.232,0.454545455,1.154296875,-0.185819071
18.24,0.467253177,1.18359375,-0.183374083
18.248,0.480938416,0.810546875,-0.180929095
18.256,0.495601173,0.5546875,-0.178484108
18.264,0.509286413,0.33984375,-0.178484108
18.272,0.522971652,0.294921875,-0.17603912
18.28,0.536656891,0.345703125,-0.173594132
18.288,0.549364614,0.384765625,-0.171149144
18.296,0.560117302,0.419921875,-0.168704156
18.304,0.568914956,0.400390625,-0.166259169
18.312,0.576735093,0.39453125,-0.163814181
18.32,0.581622678,0.42578125,-0.161369193
18.328,0.583577713,0.380859375,-0.158924205
18.336,0.582600196,0.41015625,-0.156479218
18.344,0.581622678,0.439453125,-0.15403423
18.352,0.578690127,0.416015625,-0.151589242
18.36,0.573802542,0.384765625,-0.149144254
18.368,0.568914956,0.404296875,-0.146699267
18.376,0.563049853,0.42578125,-0.144254279
18.384,0.555229717,0.400390625,-0.141809291
18.392,0.548387097,0.416015625,-0.139364303
18.4,0.541544477,0.359375,-0.136919315
18.408,0.534701857,0.375,-0.134474328
18.416,0.527859238,0.375,-0.129584352
18.424,0.521994135,0.39453125,-0.127139364
18.432,0.517106549,0.400390625,-0.122249389
18.44,0.513196481,0.39453125,-0.117359413
18.448,0.509286413,0.404296875,-0.112469438
18.456,0.504398827,0.435546875,-0.105134474
18.464,0.500488759,0.4453125,-0.100244499
18.472,0.495601173,0.455078125,-0.092909535
18.48,0.490713587,0.494140625,-0.08801956
18.488,0.485826002,0.505859375,-0.078239609
18.496,0.480938416,0.505859375,-0.070904645
18.504,0.476050831,0.515625,-0.058679707
18.512,0.471163245,0.525390625,-0.048899756
18.52,0.46627566,0.51953125,-0.034229829
18.528,0.461388074,0.509765625,-0.02200489
18.536,0.458455523,0.5,-0.007334963
18.544,0.455522972,0.48046875,0.009779951
18.552,0.45259042,0.484375,0.024449878
18.56,0.450635386,0.509765625,0.039119804
18.568,0.447702835,0.525390625,0.053789731
18.576,0.443792766,0.51953125,0.068459658
18.584,0.440860215,0.51953125,0.085574572
18.592,0.437927664,0.51953125,0.100244499
18.6,0.434995112,0.509765625,0.117359413
18.608,0.433040078,0.505859375,0.134474328
18.616,0.42913001,0.494140625,0.146699267
18.624,0.426197458,0.5,0.161369193
18.632,0.424242424,0.494140625,0.173594132
18.64,0.420332356,0.5,0.188264059
18.648,0.417399804,0.494140625,0.200488998
18.656,0.414467253,0.490234375,0.212713936
18.664,0.411534702,0.484375,0.222493888
18.672,0.406647116,0.490234375,0.234718826
18.68,0.402737048,0.494140625,0.246943765
18.688,0.397849462,0.494140625,0.256723716
18.696,0.392961877,0.494140625,0.266503667
18.704,0.387096774,0.505859375,0.276283619
18.712,0.383186706,0.509765625,0.283618582
18.72,0.379276637,0.51953125,0.293398533
18.728,0.376344086,0.529296875,0.298288509
18.736,0.374389052,0.53515625,0.305623472
18.744,0.373411535,0.525390625,0.310513447
18.752,0.3714565,0.529296875,0.317848411
18.76,0.370478983,0.505859375,0.322738386
18.768,0.370478983,0.494140625,0.327628362
18.776,0.3714565,0.494140625,0.332518337
18.784,0.374389052,0.494140625,0.334963325
18.792,0.379276637,0.494140625,0.339853301
18.8,0.387096774,0.494140625,0.342298289
18.808,0.397849462,0.494140625,0.344743276
18.816,0.411534702,0.484375,0.349633252
18.824,0.426197458,0.474609375,0.349633252
18.832,0.439882698,0.470703125,0.35207824
18.84,0.456500489,0.48046875,0.35207824
18.848,0.474095797,0.484375,0.35207824
18.856,0.49657869,0.494140625,0.349633252
18.864,0.517106549,0.515625,0.349633252
18.872,0.530791789,0.5,0.347188264
18.88,0.545454545,0.494140625,0.344743276
18.888,0.559139785,0.515625,0.339853301
18.896,0.571847507,0.505859375,0.337408313
18.904,0.583577713,0.505859375,0.332518337
18.912,0.594330401,0.5,0.325183374
18.92,0.603128055,0.494140625,0.317848411
18.928,0.609970674,0.490234375,0.310513447
18.936,0.612903226,0.5,0.303178484
18.944,0.615835777,0.5,0.298288509
18.952,0.616813294,0.515625,0.290953545
18.96,0.61485826,0.470703125,0.283618582
18.968,0.611925709,0.46484375,0.276283619
18.976,0.607038123,0.490234375,0.268948655
18.984,0.600195503,0.490234375,0.259168704
18.992,0.592375367,0.583984375,0.251833741
19,0.58455523,0.904296875,0.24205379
19.008,0.575757576,1.244140625,0.232273839
19.016,0.566959922,1.25,0.222493888
19.024,0.560117302,0.82421875,0.212713936
19.032,0.553274682,0.525390625,0.202933985
19.04,0.545454545,0.390625,0.193154034
19.048,0.538611926,0.419921875,0.183374083
19.056,0.532746823,0.42578125,0.173594132
19.064,0.528836755,0.404296875,0.161369193
19.072,0.524926686,0.400390625,0.151589242
19.08,0.521994135,0.390625,0.136919315
19.088,0.519061584,0.39453125,0.124694377
19.096,0.515151515,0.375,0.112469438
19.104,0.512218964,0.384765625,0.100244499
19.112,0.508308895,0.39453125,0.08801956
19.12,0.504398827,0.400390625,0.075794621
19.128,0.500488759,0.390625,0.063569682
19.136,0.495601173,0.39453125,0.051344743
19.144,0.490713587,0.400390625,0.036674817
19.152,0.485826002,0.39453125,0.02200489
19.16,0.480938416,0.39453125,0.004889976
19.168,0.476050831,0.400390625,-0.009779951
19.176,0.472140762,0.400390625,-0.026894866
19.184,0.468230694,0.380859375,-0.04400978
19.192,0.463343109,0.365234375,-0.061124694
19.2,0.458455523,0.349609375,-0.075794621
19.208,0.453567937,0.345703125,-0.090464548
19.216,0.448680352,0.3359375,-0.102689487
19.224,0.444770283,0.310546875,-0.117359413
19.232,0.440860215,0.32421875,-0.13202934
19.24,0.43597263,0.365234375,-0.146699267
19.248,0.431085044,0.39453125,-0.161369193
19.256,0.426197458,0.416015625,-0.173594132
19.264,0.42228739,0.4453125,-0.185819071
19.272,0.417399804,0.470703125,-0.195599022
19.28,0.413489736,0.490234375,-0.205378973
19.288,0.409579668,0.494140625,-0.215158924
19.296,0.404692082,0.494140625,-0.224938875
19.304,0.400782014,0.494140625,-0.234718826
19.312,0.396871945,0.494140625,-0.244498778
19.32,0.392961877,0.494140625,-0.251833741
19.328,0.390029326,0.484375,-0.259168704
19.336,0.388074291,0.48046875,-0.266503667
19.344,0.38514174,0.494140625,-0.273838631
19.352,0.381231672,0.490234375,-0.278728606
19.36,0.37829912,0.484375,-0.28606357
19.368,0.375366569,0.490234375,-0.290953545
19.376,0.3714565,0.490234375,-0.293398533
19.384,0.367546432,0.490234375,-0.298288509
19.392,0.364613881,0.490234375,-0.303178484
19.4,0.361681329,0.5,-0.305623472
19.408,0.357771261,0.509765625,-0.30806846
19.416,0.353861193,0.515625,-0.310513447
19.424,0.350928641,0.529296875,-0.312958435
19.432,0.348973607,0.509765625,-0.315403423
19.44,0.346041056,0.5,-0.317848411
19.448,0.342130987,0.505859375,-0.320293399
19.456,0.339198436,0.494140625,-0.320293399
19.464,0.336265885,0.484375,-0.322738386
19.472,0.333333333,0.46484375,-0.322738386
19.48,0.330400782,0.44921875,-0.325183374
19.488,0.327468231,0.4609375,-0.325183374
19.496,0.325513196,0.455078125,-0.327628362
19.504,0.322580645,0.46484375,-0.327628362
19.512,0.320625611,0.474609375,-0.33007335
19.52,0.320625611,0.490234375,-0.33007335
19.528,0.321603128,0.484375,-0.332518337
19.536,0.323558162,0.494140625,-0.332518337
19.544,0.327468231,0.509765625,-0.334963325
19.552,0.33431085,0.515625,-0.334963325
19.56,0.343108504,0.51953125,-0.337408313
19.568,0.35483871,0.515625,-0.337408313
19.576,0.369501466,0.509765625,-0.339853301
19.584,0.386119257,0.5,-0.339853301
19.592,0.404692082,0.494140625,-0.339853301
19.6,0.425219941,0.494140625,-0.339853301
19.608,0.446725318,0.494140625,-0.339853301
19.616,0.469208211,0.48046875,-0.339853301
19.624,0.487781036,0.470703125,-0.339853301
19.632,0.505376344,0.494140625,-0.337408313
19.64,0.523949169,0.470703125,-0.334963325
19.648,0.543499511,0.4609375,-0.332518337
19.656,0.563049853,0.470703125,-0.33007335
19.664,0.581622678,0.470703125,-0.327628362
19.672,0.598240469,0.48046875,-0.325183374
19.68,0.61485826,0.494140625,-0.320293399
19.688,0.6285435,0.490234375,-0.317848411
19.696,0.641251222,0.505859375,-0.312958435
19.704,0.650048876,0.515625,-0.30806846
19.712,0.655913978,0.5,-0.303178484
19.72,0.659824047,0.505859375,-0.300733496
19.728,0.659824047,0.490234375,-0.295843521
19.736,0.657869013,0.484375,-0.290953545
19.744,0.653958944,0.505859375,-0.28606357
19.752,0.649071359,0.494140625,-0.283618582
19.76,0.642228739,0.494140625,-0.278728606
19.768,0.634408602,0.490234375,-0.273838631
19.776,0.625610948,0.494140625,-0.268948655
19.784,0.616813294,0.484375,-0.266503667
19.792,0.60801564,0.470703125,-0.261613692
19.8,0.600195503,0.470703125,-0.256723716
19.808,0.593352884,0.474609375,-0.251833741
19.816,0.586510264,0.53515625,-0.249388753
19.824,0.579667644,0.8046875,-0.244498778
19.832,0.573802542,1.19921875,-0.239608802
19.84,0.567937439,1.26953125,-0.234718826
19.848,0.562072336,0.9140625,-0.232273839
19.856,0.558162268,0.599609375,-0.227383863
19.864,0.555229717,0.400390625,-0.224938875
19.872,0.550342131,0.380859375,-0.2200489
19.88,0.545454545,0.404296875,-0.217603912
19.888,0.54056696,0.400390625,-0.212713936
19.896,0.537634409,0.400390625,-0.210268949
19.904,0.53372434,0.400390625,-0.205378973
19.912,0.530791789,0.400390625,-0.202933985
19.92,0.52688172,0.400390625,-0.19804401
19.928,0.523949169,0.380859375,-0.195599022
19.936,0.521016618,0.390625,-0.190709046
19.944,0.517106549,0.39453125,-0.188264059
19.952,0.513196481,0.404296875,-0.183374083
19.96,0.509286413,0.419921875,-0.180929095
19.968,0.504398827,0.384765625,-0.178484108
19.976,0.498533724,0.400390625,-0.17603912
19.984,0.491691105,0.400390625,-0.173594132
19.992,0.484848485,0.41015625,-0.173594132
20,0.478005865,0.400390625,-0.171149144
20.008,0.470185728,0.380859375,-0.168704156
20.016,0.464320626,0.375,-0.168704156
20.024,0.458455523,0.359375,-0.166259169
20.032,0.453567937,0.349609375,-0.166259169
20.04,0.447702835,0.359375,-0.163814181
20.048,0.441837732,0.37109375,-0.163814181
20.056,0.43597263,0.375,-0.161369193
20.064,0.430107527,0.400390625,-0.161369193
20.072,0.424242424,0.42578125,-0.161369193
20.08,0.419354839,0.44921875,-0.158924205
20.088,0.414467253,0.439453125,-0.158924205
20.096,0.410557185,0.490234375,-0.158924205
20.104,0.406647116,0.494140625,-0.156479218
20.112,0.403714565,0.470703125,-0.156479218
20.12,0.399804497,0.48046875,-0.156479218
20.128,0.396871945,0.470703125,-0.156479218
20.136,0.395894428,0.494140625,-0.15403423
20.144,0.392961877,0.494140625,-0.15403423
20.152,0.391006843,0.505859375,-0.15403423
20.16,0.388074291,0.46484375,-0.15403423
20.168,0.386119257,0.4609375,-0.15403423
20.176,0.384164223,0.48046875,-0.151589242
20.184,0.383186706,0.505859375,-0.15403423
20.192,0.381231672,0.51953125,-0.15403423
20.2,0.37829912,0.484375,-0.156479218
20.208,0.375366569,0.48046875,-0.158924205
20.216,0.372434018,0.505859375,-0.161369193
20.224,0.369501466,0.5,-0.163814181
20.232,0.367546432,0.494140625,-0.166259169
20.24,0.364613881,0.505859375,-0.166259169
20.248,0.360703812,0.48046875,-0.171149144
20.256,0.357771261,0.470703125,-0.173594132
20.264,0.35483871,0.494140625,-0.17603912
20.272,0.351906158,0.470703125,-0.180929095
20.28,0.350928641,0.46484375,-0.183374083
20.288,0.348973607,0.505859375,-0.185819071
20.296,0.347018573,0.51953125,-0.188264059
20.304,0.345063539,0.484375,-0.188264059
20.312,0.343108504,0.494140625,-0.190709046
20.32,0.342130987,0.494140625,-0.190709046
20.328,0.34115347,0.470703125,-0.190709046
20.336,0.339198436,0.494140625,-0.190709046
20.344,0.337243402,0.51953125,-0.188264059
20.352,0.336265885,0.505859375,-0.185819071
20.36,0.335288368,0.5,-0.180929095
20.368,0.335288368,0.484375,-0.17603912
20.376,0.337243402,0.48046875,-0.171149144
20.384,0.342130987,0.490234375,-0.166259169
20.392,0.349951124,0.48046875,-0.158924205
20.4,0.361681329,0.470703125,-0.151589242
20.408,0.374389052,0.474609375,-0.141809291
20.416,0.390029326,0.484375,-0.13202934
20.424,0.405669599,0.515625,-0.119804401
20.432,0.421309873,0.705078125,-0.105134474
20.44,0.439882698,1.09375,-0.08801956
20.448,0.45943304,1.28515625,-0.070904645
20.456,0.480938416,1.0546875,-0.053789731
20.464,0.501466276,0.71484375,-0.034229829
20.472,0.521994135,0.4453125,-0.017114914
20.48,0.541544477,0.390625,0.002444988
20.488,0.560117302,0.42578125,0.019559902
20.496,0.57771261,0.4296875,0.036674817
20.504,0.594330401,0.4453125,0.058679707
20.512,0.609970674,0.4453125,0.080684597
20.52,0.62170088,0.439453125,0.102689487
20.528,0.630498534,0.42578125,0.127139364
20.536,0.639296188,0.435546875,0.149144254
20.544,0.64516129,0.42578125,0.171149144
20.552,0.650048876,0.42578125,0.190709046
20.56,0.65200391,0.42578125,0.210268949
20.568,0.65200391,0.435546875,0.232273839
20.576,0.651026393,0.4453125,0.254278729
20.584,0.648093842,0.4453125,0.278728606
20.592,0.643206256,0.435546875,0.303178484
20.6,0.637341153,0.42578125,0.325183374
20.608,0.630498534,0.416015625,0.349633252
20.616,0.623655914,0.416015625,0.371638142
20.624,0.616813294,0.400390625,0.39608802
20.632,0.610948192,0.400390625,0.415647922
20.64,0.604105572,0.419921875,0.435207824
20.648,0.598240469,0.4296875,0.452322738
20.656,0.591397849,0.44921875,0.469437653
20.664,0.585532747,0.46484375,0.486552567
20.672,0.579667644,0.490234375,0.503667482
20.68,0.575757576,0.51953125,0.518337408
20.688,0.572825024,0.5390625,0.533007335
20.696,0.568914956,0.55078125,0.547677262
20.704,0.565004888,0.560546875,0.5599022
20.712,0.560117302,0.5546875,0.569682152
20.72,0.555229717,0.560546875,0.579462103
20.728,0.551319648,0.53515625,0.589242054
20.736,0.546432063,0.51953125,0.599022005
20.744,0.542521994,0.494140625,0.606356968
20.752,0.537634409,0.490234375,0.613691932
20.76,0.532746823,0.474609375,0.616136919
20.768,0.52688172,0.470703125,0.621026895
20.776,0.521016618,0.46484375,0.621026895
20.784,0.515151515,0.470703125,0.621026895
20.792,0.509286413,0.48046875,0.621026895
20.8,0.50342131,0.474609375,0.618581907
20.808,0.49657869,0.525390625,0.613691932
20.816,0.490713587,0.740234375,0.611246944
20.824,0.485826002,1.1640625,0.601466993
20.832,0.480938416,1.369140625,0.594132029
20.84,0.476050831,1.103515625,0.58190709
20.848,0.471163245,0.775390625,0.572127139
20.856,0.467253177,0.494140625,0.5599022
20.864,0.463343109,0.42578125,0.547677262
20.872,0.45943304,0.435546875,0.535452323
20.88,0.456500489,0.439453125,0.520782396
20.888,0.45259042,0.416015625,0.506112469
20.896,0.448680352,0.39453125,0.488997555
20.904,0.442815249,0.400390625,0.469437653
20.912,0.437927664,0.380859375,0.449877751
20.92,0.434995112,0.35546875,0.427872861
20.928,0.431085044,0.365234375,0.405867971
20.936,0.426197458,0.37109375,0.383863081
20.944,0.421309873,0.359375,0.359413203
20.952,0.416422287,0.375,0.339853301
20.96,0.411534702,0.380859375,0.317848411
20.968,0.408602151,0.39453125,0.298288509
20.976,0.405669599,0.404296875,0.278728606
20.984,0.403714565,0.41015625,0.259168704
20.992,0.402737048,0.404296875,0.239608802
21,0.403714565,0.404296875,0.2200489
21.008,0.406647116,0.416015625,0.200488998
21.016,0.412512219,0.42578125,0.180929095
21.024,0.420332356,0.419921875,0.163814181
21.032,0.42913001,0.400390625,0.146699267
21.04,0.440860215,0.39453125,0.13202934
21.048,0.455522972,0.419921875,0.114914425
21.056,0.472140762,0.42578125,0.100244499
21.064,0.488758553,0.4609375,0.083129584
21.072,0.505376344,0.470703125,0.068459658
21.08,0.521016618,0.470703125,0.053789731
21.088,0.535679374,0.484375,0.039119804
21.096,0.549364614,0.5,0.026894866
21.104,0.562072336,0.5,0.014669927
21.112,0.573802542,0.5,0.002444988
21.12,0.582600196,0.509765625,-0.009779951
21.128,0.590420332,0.515625,-0.019559902
21.136,0.598240469,0.51953125,-0.029339853
21.144,0.604105572,0.5390625,-0.039119804
21.152,0.609970674,0.5390625,-0.046454768
21.16,0.613880743,0.529296875,-0.056234719
21.168,0.615835777,0.525390625,-0.06601467
21.176,0.616813294,0.509765625,-0.073349633
21.184,0.613880743,0.515625,-0.080684597
21.192,0.609970674,0.51953125,-0.08801956
21.2,0.604105572,0.509765625,-0.095354523
21.208,0.596285435,0.509765625,-0.102689487
21.216,0.588465298,0.505859375,-0.11002445
21.224,0.581622678,0.505859375,-0.117359413
21.232,0.573802542,0.515625,-0.124694377
21.24,0.566959922,0.525390625,-0.129584352
21.248,0.559139785,0.5390625,-0.136919315
21.256,0.551319648,0.544921875,-0.141809291
21.264,0.545454545,0.53515625,-0.146699267
21.272,0.539589443,0.5390625,-0.151589242
21.28,0.535679374,0.5390625,-0.156479218
21.288,0.530791789,0.55078125,-0.161369193
21.296,0.52688172,0.5546875,-0.163814181
21.304,0.522971652,0.53515625,-0.168704156
21.312,0.519061584,0.509765625,-0.171149144
21.32,0.516129032,0.509765625,-0.173594132
21.328,0.512218964,0.515625,-0.17603912
21.336,0.508308895,0.494140625,-0.178484108
21.344,0.504398827,0.490234375,-0.180929095
21.352,0.499511241,0.490234375,-0.183374083
21.36,0.495601173,0.490234375,-0.185819071
21.368,0.490713587,0.494140625,-0.188264059
21.376,0.485826002,0.509765625,-0.188264059
21.384,0.481915934,0.494140625,-0.188264059
21.392,0.478983382,0.490234375,-0.190709046
21.4,0.476050831,0.5,-0.190709046
21.408,0.475073314,0.51953125,-0.190709046
21.416,0.474095797,0.515625,-0.190709046
21.424,0.474095797,0.505859375,-0.190709046
21.432,0.476050831,0.51953125,-0.190709046
21.44,0.479960899,0.525390625,-0.190709046
21.448,0.485826002,0.51953125,-0.190709046
21.456,0.491691105,0.505859375,-0.188264059
21.464,0.498533724,0.494140625,-0.188264059
21.472,0.505376344,0.494140625,-0.188264059
21.48,0.511241447,0.509765625,-0.185819071
21.488,0.516129032,0.515625,-0.183374083
21.496,0.519061584,0.509765625,-0.183374083
21.504,0.521016618,0.515625,-0.180929095
21.512,0.520039101,0.494140625,-0.180929095
21.52,0.518084066,0.490234375,-0.178484108
21.528,0.514173998,0.494140625,-0.178484108
21.536,0.508308895,0.60546875,-0.17603912
21.544,0.500488759,0.9140625,-0.17603912
21.552,0.491691105,1.263671875,-0.173594132
21.56,0.482893451,1.173828125,-0.173594132
21.568,0.474095797,0.85546875,-0.173594132
21.576,0.46627566,0.5390625,-0.171149144
21.584,0.45943304,0.419921875,-0.171149144
21.592,0.455522972,0.4296875,-0.171149144
21.6,0.451612903,0.4453125,-0.171149144
21.608,0.449657869,0.435546875,-0.168704156
21.616,0.447702835,0.435546875,-0.168704156
21.624,0.446725318,0.4453125,-0.168704156
21.632,0.445747801,0.44921875,-0.168704156
21.64,0.443792766,0.4453125,-0.166259169
21.648,0.441837732,0.42578125,-0.166259169
21.656,0.439882698,0.419921875,-0.166259169
21.664,0.436950147,0.416015625,-0.166259169
21.672,0.434995112,0.404296875,-0.163814181
21.68,0.432062561,0.39453125,-0.163814181
21.688,0.42913001,0.390625,-0.163814181
21.696,0.426197458,0.37109375,-0.163814181
21.704,0.423264907,0.35546875,-0.161369193
21.712,0.420332356,0.359375,-0.161369193
21.72,0.417399804,0.375,-0.158924205
21.728,0.414467253,0.384765625,-0.158924205
21.736,0.411534702,0.375,-0.156479218
21.744,0.407624633,0.365234375,-0.156479218
21.752,0.404692082,0.35546875,-0.15403423
21.76,0.400782014,0.345703125,-0.15403423
21.768,0.396871945,0.359375,-0.151589242
21.776,0.39198436,0.380859375,-0.151589242
21.784,0.387096774,0.400390625,-0.149144254
21.792,0.383186706,0.44921875,-0.149144254
21.8,0.379276637,0.505859375,-0.146699267
21.808,0.375366569,0.51953125,-0.144254279
21.816,0.3714565,0.48046875,-0.141809291
21.824,0.367546432,0.544921875,-0.141809291
21.832,0.364613881,0.529296875,-0.139364303
21.84,0.360703812,0.509765625,-0.136919315
21.848,0.356793744,0.51953125,-0.136919315
21.856,0.352883675,0.51953125,-0.134474328
21.864,0.348973607,0.53515625,-0.134474328
21.872,0.346041056,0.525390625,-0.13202934
21.88,0.343108504,0.5703125,-0.13202934
21.888,0.34115347,0.595703125,-0.13202934
21.896,0.339198436,0.57421875,-0.13202934
21.904,0.335288368,0.5390625,-0.13202934
21.912,0.331378299,0.51953125,-0.13202934
21.92,0.328445748,0.53515625,-0.13202934
21.928,0.325513196,0.53515625,-0.13202934
21.936,0.322580645,0.53515625,-0.13202934
21.944,0.320625611,0.5390625,-0.134474328
21.952,0.31769306,0.525390625,-0.134474328
21.96,0.314760508,0.484375,-0.139364303
21.968,0.311827957,0.474609375,-0.141809291
21.976,0.308895406,0.470703125,-0.144254279
21.984,0.305962854,0.490234375,-0.146699267
21.992,0.30400782,0.494140625,-0.149144254
22,0.301075269,0.509765625,-0.151589242
22.008,0.299120235,0.515625,-0.15403423
22.016,0.298142717,0.5390625,-0.156479218
22.024,0.2971652,0.544921875,-0.158924205
22.032,0.2971652,0.515625,-0.163814181
22.04,0.2971652,0.529296875,-0.166259169
22.048,0.298142717,0.5703125,-0.168704156
22.056,0.298142717,0.51953125,-0.171149144
22.064,0.299120235,0.51953125,-0.173594132
22.072,0.301075269,0.5390625,-0.17603912
22.08,0.305962854,0.529296875,-0.17603912
22.088,0.313782991,0.515625,-0.178484108
22.096,0.324535679,0.509765625,-0.178484108
22.104,0.340175953,0.51953125,-0.17603912
22.112,0.358748778,0.474609375,-0.17603912
22.12,0.377321603,0.484375,-0.173594132
22.128,0.396871945,0.48046875,-0.171149144
22.136,0.420332356,0.505859375,-0.166259169
22.144,0.445747801,0.484375,-0.163814181
22.152,0.472140762,0.525390625,-0.161369193
22.16,0.497556207,0.544921875,-0.156479218
22.168,0.522971652,0.505859375,-0.149144254
22.176,0.548387097,0.53515625,-0.141809291
22.184,0.571847507,0.5390625,-0.134474328
22.192,0.595307918,0.51953125,-0.124694377
22.2,0.617790811,0.515625,-0.112469438
22.208,0.637341153,0.51953125,-0.100244499
22.216,0.652981427,0.51953125,-0.085574572
22.224,0.66568915,0.505859375,-0.068459658
22.232,0.677419355,0.525390625,-0.053789731
22.24,0.686217009,0.66015625,-0.039119804
22.248,0.693059629,0.990234375,-0.024449878
22.256,0.696969697,1.259765625,-0.007334963
22.264,0.697947214,1.0703125,0.009779951
22.272,0.69599218,0.75,0.029339853
22.28,0.691104594,0.474609375,0.051344743
22.288,0.685239492,0.39453125,0.073349633
22.296,0.677419355,0.400390625,0.092909535
22.304,0.669599218,0.416015625,0.112469438
22.312,0.661779081,0.41015625,0.134474328
22.32,0.653958944,0.42578125,0.15403423
22.328,0.647116325,0.435546875,0.17603912
22.336,0.639296188,0.42578125,0.19804401
22.344,0.632453568,0.42578125,0.222493888
22.352,0.627565982,0.42578125,0.246943765
22.36,0.622678397,0.419921875,0.271393643
22.368,0.618768328,0.41015625,0.295843521
22.376,0.613880743,0.416015625,0.320293399
22.384,0.609970674,0.41015625,0.347188264
22.392,0.604105572,0.416015625,0.366748166
22.4,0.599217986,0.384765625,0.388753056
22.408,0.593352884,0.400390625,0.408312958
22.416,0.588465298,0.400390625,0.425427873
22.424,0.583577713,0.400390625,0.444987775
22.432,0.57771261,0.39453125,0.464547677
22.44,0.572825024,0.390625,0.484107579
22.448,0.566959922,0.400390625,0.501222494
22.456,0.562072336,0.375,0.518337408
22.464,0.556207234,0.384765625,0.533007335
22.472,0.550342131,0.390625,0.545232274
22.48,0.543499511,0.400390625,0.5599022
22.488,0.536656891,0.439453125,0.569682152
22.496,0.529814272,0.46484375,0.58190709
22.504,0.522971652,0.484375,0.591687042
22.512,0.517106549,0.490234375,0.60391198
22.52,0.511241447,0.5,0.611246944
22.528,0.507331378,0.484375,0.621026895
22.536,0.502443793,0.505859375,0.628361858
22.544,0.49657869,0.515625,0.633251834
22.552,0.491691105,0.505859375,0.638141809
22.56,0.485826002,0.515625,0.640586797
22.568,0.480938416,0.51953125,0.643031785
22.576,0.475073314,0.51953125,0.643031785
22.584,0.470185728,0.525390625,0.640586797
22.592,0.46627566,0.51953125,0.638141809
22.6,0.461388074,0.5,0.630806846
22.608,0.456500489,0.48046875,0.62591687
22.616,0.45259042,0.490234375,0.618581907
22.624,0.449657869,0.490234375,0.611246944
22.632,0.445747801,0.484375,0.60391198
22.64,0.441837732,0.484375,0.594132029
22.648,0.438905181,0.490234375,0.58190709
22.656,0.43597263,0.484375,0.569682152
22.664,0.433040078,0.470703125,0.552567237
22.672,0.431085044,0.484375,0.537897311
22.68,0.428152493,0.494140625,0.518337408
22.688,0.426197458,0.494140625,0.501222494
22.696,0.424242424,0.490234375,0.479217604
22.704,0.42228739,0.494140625,0.459657702
22.712,0.420332356,0.515625,0.4400978
22.72,0.419354839,0.51953125,0.420537897
22.728,0.417399804,0.515625,0.400977995
22.736,0.41544477,0.53515625,0.381418093
22.744,0.412512219,0.5390625,0.361858191
22.752,0.410557185,0.529296875,0.342298289
22.76,0.408602151,0.5390625,0.322738386
22.768,0.407624633,0.529296875,0.300733496
22.776,0.406647116,0.53515625,0.283618582
22.784,0.407624633,0.51953125,0.26405868
22.792,0.409579668,0.515625,0.246943765
22.8,0.413489736,0.515625,0.229828851
22.808,0.418377322,0.525390625,0.210268949
22.816,0.425219941,0.51953125,0.193154034
22.824,0.433040078,0.51953125,0.17603912
22.832,0.445747801,0.515625,0.158924205
22.84,0.460410557,0.525390625,0.141809291
22.848,0.478005865,0.5390625,0.124694377
22.856,0.49657869,0.5390625,0.107579462
22.864,0.516129032,0.529296875,0.090464548
22.872,0.536656891,0.53515625,0.075794621
22.88,0.557184751,0.525390625,0.063569682
22.888,0.576735093,0.634765625,0.048899756
22.896,0.596285435,0.919921875,0.036674817
22.904,0.61485826,1.259765625,0.024449878
22.912,0.631476051,1.154296875,0.012224939
22.92,0.64516129,0.833984375,0.002444988
22.928,0.656891496,0.51953125,-0.009779951
22.936,0.668621701,0.390625,-0.017114914
22.944,0.678396872,0.404296875,-0.026894866
22.952,0.68914956,0.4296875,-0.034229829
22.96,0.696969697,0.42578125,-0.041564792
22.968,0.700879765,0.42578125,-0.048899756
22.976,0.7028348,0.42578125,-0.056234719
22.984,0.7028348,0.435546875,-0.063569682
22.992,0.699902248,0.42578125,-0.070904645
23,0.694037146,0.416015625,-0.078239609
23.008,0.687194526,0.42578125,-0.085574572
23.016,0.679374389,0.4453125,-0.090464548
23.024,0.670576735,0.455078125,-0.097799511
23.032,0.660801564,0.46484375,-0.102689487
23.04,0.651026393,0.4453125,-0.107579462
23.048,0.640273705,0.44921875,-0.112469438
23.056,0.630498534,0.435546875,-0.117359413
23.064,0.620723363,0.42578125,-0.122249389
23.072,0.611925709,0.4296875,-0.124694377
