Time,PPG,ECG,resp
360,0.737047898,0.515686275,0.368523949
360.008,0.73313783,0.509803922,0.365591398
360.016,0.730205279,0.505882353,0.363636364
360.024,0.725317693,0.505882353,0.360703812
360.032,0.71945259,0.505882353,0.357771261
360.04,0.712609971,0.509803922,0.35483871
360.048,0.703812317,0.509803922,0.352883675
360.056,0.693059629,0.515686275,0.349951124
360.064,0.679374389,0.505882353,0.34799609
360.072,0.664711632,0.505882353,0.345063539
360.08,0.648093842,0.509803922,0.343108504
360.088,0.629521017,0.519607843,0.342130987
360.096,0.608993157,0.505882353,0.340175953
360.104,0.589442815,0.484313725,0.339198436
360.112,0.571847507,0.470588235,0.338220919
360.12,0.552297165,0.449019608,0.337243402
360.128,0.532746823,0.435294118,0.336265885
360.136,0.515151515,0.439215686,0.335288368
360.144,0.498533724,0.445098039,0.33431085
360.152,0.484848485,0.454901961,0.333333333
360.16,0.472140762,0.449019608,0.333333333
360.168,0.462365591,0.449019608,0.332355816
360.176,0.45259042,0.449019608,0.332355816
360.184,0.444770283,0.439215686,0.331378299
360.192,0.437927664,0.429411765,0.331378299
360.2,0.432062561,0.429411765,0.330400782
360.208,0.426197458,0.435294118,0.330400782
360.216,0.419354839,0.419607843,0.329423265
360.224,0.412512219,0.429411765,0.329423265
360.232,0.404692082,0.429411765,0.329423265
360.24,0.396871945,0.429411765,0.328445748
360.248,0.390029326,0.429411765,0.328445748
360.256,0.382209189,0.425490196,0.328445748
360.264,0.375366569,0.419607843,0.328445748
360.272,0.368523949,0.429411765,0.327468231
360.28,0.361681329,0.419607843,0.327468231
360.288,0.355816227,0.419607843,0.327468231
360.296,0.348973607,0.415686275,0.327468231
360.304,0.344086022,0.425490196,0.326490714
360.312,0.340175953,0.415686275,0.326490714
360.32,0.33431085,0.403921569,0.326490714
360.328,0.329423265,0.374509804,0.326490714
360.336,0.324535679,0.339215686,0.325513196
360.344,0.319648094,0.429411765,0.325513196
360.352,0.314760508,0.696078431,0.325513196
360.36,0.309872923,0.870588235,0.325513196
360.368,0.305962854,0.470588235,0.326490714
360.376,0.302052786,-0.041176471,0.327468231
360.384,0.299120235,-0.317647059,0.327468231
360.392,0.295210166,-0.362745098,0.328445748
360.4,0.293255132,-0.201960784,0.329423265
360.408,0.291300098,-0.005882353,0.329423265
360.416,0.288367546,0.062745098,0.330400782
360.424,0.285434995,0.058823529,0.330400782
360.432,0.283479961,0.088235294,0.331378299
360.44,0.28054741,0.21372549,0.332355816
360.448,0.278592375,0.349019608,0.333333333
360.456,0.276637341,0.384313725,0.33431085
360.464,0.274682307,0.380392157,0.335288368
360.472,0.272727273,0.4,0.336265885
360.48,0.270772239,0.384313725,0.337243402
360.488,0.268817204,0.374509804,0.338220919
360.496,0.267839687,0.364705882,0.340175953
360.504,0.26686217,0.358823529,0.342130987
360.512,0.26686217,0.339215686,0.344086022
360.52,0.265884653,0.339215686,0.346041056
360.528,0.264907136,0.329411765,0.348973607
360.536,0.263929619,0.319607843,0.350928641
360.544,0.263929619,0.309803922,0.352883675
360.552,0.262952102,0.294117647,0.35483871
360.56,0.262952102,0.278431373,0.357771261
360.568,0.261974585,0.274509804,0.359726295
360.576,0.260997067,0.258823529,0.361681329
360.584,0.26001955,0.249019608,0.363636364
360.592,0.26001955,0.233333333,0.364613881
360.6,0.26001955,0.21372549,0.366568915
360.608,0.260997067,0.194117647,0.367546432
360.616,0.260997067,0.168627451,0.368523949
360.624,0.260997067,0.143137255,0.369501466
360.632,0.260997067,0.119607843,0.369501466
360.64,0.260997067,0.094117647,0.370478983
360.648,0.26001955,0.062745098,0.3714565
360.656,0.26001955,0.043137255,0.372434018
360.664,0.26001955,0.017647059,0.373411535
360.672,0.26001955,0.003921569,0.374389052
360.68,0.26001955,-0.001960784,0.376344086
360.688,0.26001955,0.007843137,0.377321603
360.696,0.26001955,0.007843137,0.379276637
360.704,0.260997067,0.017647059,0.381231672
360.712,0.260997067,0.033333333,0.383186706
360.72,0.260997067,0.058823529,0.384164223
360.728,0.260997067,0.084313725,0.386119257
360.736,0.26001955,0.119607843,0.388074291
360.744,0.26001955,0.149019608,0.39198436
360.752,0.259042033,0.188235294,0.395894428
360.76,0.259042033,0.219607843,0.400782014
360.768,0.259042033,0.258823529,0.405669599
360.776,0.259042033,0.290196078,0.410557185
360.784,0.259042033,0.319607843,0.41544477
360.792,0.259042033,0.345098039,0.420332356
360.8,0.26001955,0.364705882,0.425219941
360.808,0.261974585,0.384313725,0.430107527
360.816,0.262952102,0.403921569,0.434995112
360.824,0.263929619,0.409803922,0.440860215
360.832,0.264907136,0.415686275,0.446725318
360.84,0.264907136,0.425490196,0.45259042
360.848,0.264907136,0.415686275,0.458455523
360.856,0.26686217,0.419607843,0.464320626
360.864,0.269794721,0.409803922,0.471163245
360.872,0.275659824,0.409803922,0.475073314
360.88,0.288367546,0.403921569,0.479960899
360.888,0.308895406,0.415686275,0.483870968
360.896,0.338220919,0.409803922,0.486803519
360.904,0.368523949,0.415686275,0.48973607
360.912,0.402737048,0.415686275,0.491691105
360.92,0.445747801,0.429411765,0.493646139
360.928,0.493646139,0.439215686,0.495601173
360.936,0.541544477,0.439215686,0.49657869
360.944,0.586510264,0.439215686,0.49657869
360.952,0.626588465,0.449019608,0.49657869
360.96,0.659824047,0.454901961,0.49657869
360.968,0.687194526,0.454901961,0.494623656
360.976,0.708699902,0.460784314,0.493646139
360.984,0.725317693,0.464705882,0.490713587
360.992,0.737047898,0.470588235,0.488758553
361,0.743890518,0.464705882,0.485826002
361.008,0.747800587,0.460784314,0.482893451
361.016,0.750733138,0.460784314,0.478983382
361.024,0.753665689,0.464705882,0.476050831
361.032,0.755620723,0.460784314,0.472140762
361.04,0.75659824,0.454901961,0.469208211
361.048,0.75659824,0.460784314,0.465298143
361.056,0.755620723,0.460784314,0.462365591
361.064,0.753665689,0.454901961,0.458455523
361.072,0.749755621,0.454901961,0.454545455
361.08,0.743890518,0.449019608,0.450635386
361.088,0.736070381,0.464705882,0.446725318
361.096,0.72629521,0.464705882,0.442815249
361.104,0.715542522,0.454901961,0.439882698
361.112,0.7028348,0.454901961,0.436950147
361.12,0.688172043,0.460784314,0.434995112
361.128,0.672531769,0.454901961,0.431085044
361.136,0.653958944,0.454901961,0.428152493
361.144,0.634408602,0.439215686,0.424242424
361.152,0.612903226,0.425490196,0.421309873
361.16,0.591397849,0.403921569,0.416422287
361.168,0.569892473,0.390196078,0.412512219
361.176,0.549364614,0.394117647,0.408602151
361.184,0.529814272,0.390196078,0.404692082
361.192,0.512218964,0.4,0.399804497
361.2,0.497556207,0.4,0.395894428
361.208,0.485826002,0.403921569,0.39198436
361.216,0.474095797,0.394117647,0.389051808
361.224,0.464320626,0.384313725,0.384164223
361.232,0.454545455,0.384313725,0.379276637
361.24,0.446725318,0.390196078,0.374389052
361.248,0.438905181,0.384313725,0.369501466
361.256,0.431085044,0.384313725,0.364613881
361.264,0.423264907,0.380392157,0.359726295
361.272,0.41544477,0.384313725,0.355816227
361.28,0.406647116,0.380392157,0.350928641
361.288,0.398826979,0.384313725,0.346041056
361.296,0.391006843,0.380392157,0.34115347
361.304,0.38514174,0.384313725,0.335288368
361.312,0.377321603,0.374509804,0.330400782
361.32,0.370478983,0.380392157,0.324535679
361.328,0.362658847,0.384313725,0.319648094
361.336,0.355816227,0.380392157,0.313782991
361.344,0.348973607,0.380392157,0.308895406
361.352,0.342130987,0.374509804,0.303030303
361.36,0.336265885,0.364705882,0.298142717
361.368,0.329423265,0.339215686,0.293255132
361.376,0.323558162,0.3,0.288367546
361.384,0.31769306,0.390196078,0.282502444
361.392,0.312805474,0.645098039,0.277614858
361.4,0.307917889,0.831372549,0.272727273
361.408,0.304985337,0.419607843,0.267839687
361.416,0.301075269,-0.082352941,0.262952102
361.424,0.296187683,-0.32745098,0.258064516
361.432,0.292277615,-0.388235294,0.253176931
361.44,0.288367546,-0.237254902,0.248289345
361.448,0.284457478,-0.037254902,0.24340176
361.456,0.28054741,0.052941176,0.238514174
361.464,0.277614858,0.039215686,0.234604106
361.472,0.274682307,0.033333333,0.22971652
361.48,0.271749756,0.158823529,0.225806452
361.488,0.269794721,0.3,0.221896383
361.496,0.267839687,0.345098039,0.218963832
361.504,0.26686217,0.354901961,0.216031281
361.512,0.265884653,0.370588235,0.213098729
361.52,0.263929619,0.374509804,0.210166178
361.528,0.261974585,0.354901961,0.207233627
361.536,0.26001955,0.345098039,0.205278592
361.544,0.259042033,0.323529412,0.202346041
361.552,0.257086999,0.319607843,0.200391007
361.56,0.256109482,0.31372549,0.198435973
361.568,0.255131965,0.290196078,0.196480938
361.576,0.253176931,0.278431373,0.194525904
361.584,0.252199413,0.284313725,0.19257087
361.592,0.252199413,0.264705882,0.190615836
361.6,0.251221896,0.249019608,0.189638319
361.608,0.252199413,0.245098039,0.186705767
361.616,0.252199413,0.233333333,0.184750733
361.624,0.251221896,0.219607843,0.182795699
361.632,0.251221896,0.2,0.179863148
361.64,0.250244379,0.184313725,0.177908113
361.648,0.250244379,0.164705882,0.174975562
361.656,0.249266862,0.149019608,0.172043011
361.664,0.249266862,0.129411765,0.169110459
361.672,0.249266862,0.098039216,0.166177908
361.68,0.250244379,0.068627451,0.163245357
361.688,0.250244379,0.052941176,0.160312805
361.696,0.251221896,0.029411765,0.158357771
361.704,0.251221896,0.01372549,0.15542522
361.712,0.252199413,-0.005882353,0.153470186
361.72,0.252199413,-0.011764706,0.151515152
361.728,0.252199413,-0.015686275,0.149560117
361.736,0.252199413,-0.001960784,0.147605083
361.744,0.252199413,0.003921569,0.146627566
361.752,0.252199413,0.017647059,0.144672532
361.76,0.252199413,0.043137255,0.143695015
361.768,0.252199413,0.078431373,0.144672532
361.776,0.252199413,0.119607843,0.144672532
361.784,0.252199413,0.149019608,0.146627566
361.792,0.252199413,0.188235294,0.1485826
361.8,0.252199413,0.223529412,0.151515152
361.808,0.252199413,0.264705882,0.154447703
361.816,0.252199413,0.3,0.157380254
361.824,0.252199413,0.323529412,0.161290323
361.832,0.252199413,0.349019608,0.164222874
361.84,0.252199413,0.374509804,0.168132942
361.848,0.252199413,0.394117647,0.171065494
361.856,0.252199413,0.415686275,0.174975562
361.864,0.252199413,0.425490196,0.177908113
361.872,0.252199413,0.435294118,0.181818182
361.88,0.252199413,0.435294118,0.184750733
361.888,0.252199413,0.445098039,0.188660802
361.896,0.253176931,0.439215686,0.190615836
361.904,0.255131965,0.439215686,0.193548387
361.912,0.26001955,0.435294118,0.196480938
361.92,0.268817204,0.449019608,0.198435973
361.928,0.283479961,0.445098039,0.19941349
361.936,0.305962854,0.454901961,0.200391007
361.944,0.336265885,0.454901961,0.201368524
361.952,0.374389052,0.464705882,0.201368524
361.96,0.419354839,0.464705882,0.201368524
361.968,0.46627566,0.474509804,0.200391007
361.976,0.514173998,0.480392157,0.19941349
361.984,0.560117302,0.484313725,0.198435973
361.992,0.600195503,0.494117647,0.196480938
362,0.630498534,0.5,0.194525904
362.008,0.653958944,0.505882353,0.19257087
362.016,0.674486804,0.505882353,0.189638319
362.024,0.692082111,0.505882353,0.187683284
362.032,0.705767351,0.505882353,0.184750733
362.04,0.715542522,0.509803922,0.181818182
362.048,0.723362659,0.505882353,0.179863148
362.056,0.729227761,0.505882353,0.176930596
362.064,0.73313783,0.505882353,0.174975562
362.072,0.736070381,0.505882353,0.173020528
362.08,0.737047898,0.5,0.171065494
362.088,0.738025415,0.505882353,0.168132942
362.096,0.736070381,0.505882353,0.166177908
362.104,0.732160313,0.505882353,0.164222874
362.112,0.728250244,0.505882353,0.161290323
362.12,0.723362659,0.505882353,0.160312805
362.128,0.717497556,0.505882353,0.159335288
362.136,0.709677419,0.505882353,0.159335288
362.144,0.699902248,0.509803922,0.160312805
362.152,0.688172043,0.509803922,0.160312805
362.16,0.674486804,0.490196078,0.160312805
362.168,0.65884653,0.480392157,0.161290323
362.176,0.642228739,0.460784314,0.16226784
362.184,0.622678397,0.449019608,0.163245357
362.192,0.603128055,0.449019608,0.165200391
362.2,0.58455523,0.445098039,0.166177908
362.208,0.565982405,0.454901961,0.168132942
362.216,0.54740958,0.454901961,0.170087977
362.224,0.529814272,0.454901961,0.172043011
362.232,0.513196481,0.454901961,0.173020528
362.24,0.497556207,0.449019608,0.174975562
362.248,0.483870968,0.439215686,0.176930596
362.256,0.472140762,0.439215686,0.177908113
362.264,0.462365591,0.435294118,0.179863148
362.272,0.454545455,0.439215686,0.180840665
362.28,0.446725318,0.435294118,0.182795699
362.288,0.438905181,0.445098039,0.184750733
362.296,0.433040078,0.435294118,0.186705767
362.304,0.426197458,0.435294118,0.188660802
362.312,0.420332356,0.429411765,0.190615836
362.32,0.412512219,0.435294118,0.19257087
362.328,0.405669599,0.429411765,0.193548387
362.336,0.397849462,0.429411765,0.195503421
362.344,0.391006843,0.425490196,0.197458456
362.352,0.384164223,0.429411765,0.19941349
362.36,0.377321603,0.425490196,0.201368524
362.368,0.370478983,0.425490196,0.203323558
362.376,0.363636364,0.409803922,0.205278592
362.384,0.357771261,0.394117647,0.207233627
362.392,0.351906158,0.339215686,0.208211144
362.4,0.346041056,0.394117647,0.210166178
362.408,0.342130987,0.629411765,0.212121212
362.416,0.337243402,0.925490196,0.215053763
362.424,0.332355816,0.6,0.217986315
362.432,0.327468231,0.062745098,0.220918866
362.44,0.322580645,-0.256862745,0.2228739
362.448,0.31769306,-0.352941176,0.225806452
362.456,0.312805474,-0.252941176,0.228739003
362.464,0.307917889,-0.037254902,0.231671554
362.472,0.30400782,0.068627451,0.234604106
362.48,0.300097752,0.084313725,0.23655914
362.488,0.296187683,0.078431373,0.239491691
362.496,0.293255132,0.178431373,0.242424242
362.504,0.291300098,0.323529412,0.244379277
362.512,0.289345064,0.384313725,0.247311828
362.52,0.286412512,0.4,0.249266862
362.528,0.284457478,0.403921569,0.252199413
362.536,0.282502444,0.409803922,0.254154448
362.544,0.279569892,0.384313725,0.257086999
362.552,0.277614858,0.380392157,0.259042033
362.56,0.275659824,0.370588235,0.261974585
362.568,0.27370479,0.364705882,0.264907136
362.576,0.271749756,0.345098039,0.267839687
362.584,0.270772239,0.339215686,0.271749756
362.592,0.268817204,0.335294118,0.274682307
362.6,0.268817204,0.329411765,0.278592375
362.608,0.267839687,0.31372549,0.282502444
362.616,0.267839687,0.3,0.286412512
362.624,0.26686217,0.290196078,0.290322581
362.632,0.265884653,0.274509804,0.293255132
362.64,0.264907136,0.264705882,0.2971652
362.648,0.263929619,0.245098039,0.300097752
362.656,0.262952102,0.233333333,0.30400782
362.664,0.261974585,0.209803922,0.306940371
362.672,0.260997067,0.188235294,0.309872923
362.68,0.260997067,0.164705882,0.312805474
362.688,0.260997067,0.143137255,0.315738025
362.696,0.260997067,0.119607843,0.31769306
362.704,0.261974585,0.098039216,0.319648094
362.712,0.261974585,0.074509804,0.321603128
362.72,0.262952102,0.058823529,0.323558162
362.728,0.262952102,0.033333333,0.325513196
362.736,0.262952102,0.033333333,0.326490714
362.744,0.262952102,0.029411765,0.328445748
362.752,0.262952102,0.043137255,0.330400782
362.76,0.261974585,0.049019608,0.333333333
362.768,0.261974585,0.062745098,0.337243402
362.776,0.260997067,0.084313725,0.34115347
362.784,0.26001955,0.11372549,0.345063539
362.792,0.26001955,0.143137255,0.34799609
362.8,0.26001955,0.184313725,0.351906158
362.808,0.26001955,0.219607843,0.35483871
362.816,0.26001955,0.254901961,0.358748778
362.824,0.259042033,0.284313725,0.362658847
362.832,0.259042033,0.319607843,0.366568915
362.84,0.258064516,0.345098039,0.3714565
362.848,0.258064516,0.370588235,0.376344086
362.856,0.258064516,0.390196078,0.381231672
362.864,0.259042033,0.415686275,0.386119257
362.872,0.259042033,0.435294118,0.391006843
362.88,0.26001955,0.445098039,0.395894428
362.888,0.260997067,0.454901961,0.400782014
362.896,0.260997067,0.454901961,0.406647116
362.904,0.262952102,0.460784314,0.412512219
362.912,0.263929619,0.454901961,0.417399804
362.92,0.265884653,0.460784314,0.423264907
362.928,0.269794721,0.454901961,0.428152493
362.936,0.277614858,0.454901961,0.433040078
362.944,0.291300098,0.460784314,0.438905181
362.952,0.313782991,0.464705882,0.442815249
362.96,0.344086022,0.460784314,0.447702835
362.968,0.381231672,0.470588235,0.451612903
362.976,0.425219941,0.474509804,0.454545455
362.984,0.47311828,0.480392157,0.457478006
362.992,0.514173998,0.484313725,0.45943304
363,0.551319648,0.494117647,0.460410557
363.008,0.589442815,0.5,0.461388074
363.016,0.623655914,0.505882353,0.462365591
363.024,0.653958944,0.509803922,0.463343109
363.032,0.677419355,0.515686275,0.463343109
363.04,0.696969697,0.509803922,0.463343109
363.048,0.710654936,0.509803922,0.462365591
363.056,0.721407625,0.519607843,0.461388074
363.064,0.729227761,0.515686275,0.45943304
363.072,0.735092864,0.515686275,0.457478006
363.08,0.739002933,0.509803922,0.455522972
363.088,0.740957967,0.509803922,0.45259042
363.096,0.740957967,0.505882353,0.449657869
363.104,0.73998045,0.505882353,0.445747801
363.112,0.738025415,0.505882353,0.443792766
363.12,0.736070381,0.505882353,0.440860215
363.128,0.73313783,0.494117647,0.438905181
363.136,0.729227761,0.505882353,0.43597263
363.144,0.723362659,0.505882353,0.434017595
363.152,0.715542522,0.505882353,0.432062561
363.16,0.705767351,0.505882353,0.42913001
363.168,0.694037146,0.5,0.427174976
363.176,0.680351906,0.505882353,0.425219941
363.184,0.664711632,0.505882353,0.423264907
363.192,0.648093842,0.5,0.421309873
363.2,0.632453568,0.484313725,0.419354839
363.208,0.613880743,0.470588235,0.417399804
363.216,0.593352884,0.454901961,0.416422287
363.224,0.572825024,0.439215686,0.414467253
363.232,0.552297165,0.435294118,0.412512219
363.24,0.532746823,0.435294118,0.410557185
363.248,0.515151515,0.445098039,0.408602151
363.256,0.498533724,0.449019608,0.407624633
363.264,0.484848485,0.439215686,0.406647116
363.272,0.47311828,0.435294118,0.404692082
363.28,0.462365591,0.435294118,0.403714565
363.288,0.453567937,0.435294118,0.402737048
363.296,0.446725318,0.429411765,0.401759531
363.304,0.440860215,0.429411765,0.400782014
363.312,0.434017595,0.419607843,0.399804497
363.32,0.426197458,0.429411765,0.397849462
363.328,0.419354839,0.425490196,0.395894428
363.336,0.411534702,0.429411765,0.394916911
363.344,0.402737048,0.419607843,0.393939394
363.352,0.394916911,0.425490196,0.39198436
363.36,0.387096774,0.425490196,0.391006843
363.368,0.379276637,0.429411765,0.390029326
363.376,0.3714565,0.419607843,0.389051808
363.384,0.364613881,0.425490196,0.388074291
363.392,0.358748778,0.435294118,0.388074291
363.4,0.353861193,0.419607843,0.386119257
363.408,0.348973607,0.415686275,0.38514174
363.416,0.343108504,0.409803922,0.384164223
363.424,0.338220919,0.390196078,0.382209189
363.432,0.332355816,0.345098039,0.381231672
363.44,0.327468231,0.335294118,0.380254154
363.448,0.321603128,0.564705882,0.37829912
363.456,0.316715543,0.88627451,0.377321603
363.464,0.311827957,0.641176471,0.376344086
363.472,0.306940371,0.129411765,0.375366569
363.48,0.303030303,-0.243137255,0.373411535
363.488,0.298142717,-0.37254902,0.3714565
363.496,0.295210166,-0.292156863,0.370478983
363.504,0.293255132,-0.066666667,0.368523949
363.512,0.290322581,0.039215686,0.367546432
363.52,0.287390029,0.058823529,0.366568915
363.528,0.284457478,0.043137255,0.365591398
363.536,0.282502444,0.143137255,0.364613881
363.544,0.279569892,0.284313725,0.363636364
363.552,0.277614858,0.364705882,0.363636364
363.56,0.275659824,0.370588235,0.362658847
363.568,0.27370479,0.380392157,0.361681329
363.576,0.271749756,0.384313725,0.361681329
363.584,0.270772239,0.374509804,0.360703812
363.592,0.269794721,0.364705882,0.360703812
363.6,0.269794721,0.349019608,0.359726295
363.608,0.269794721,0.339215686,0.359726295
363.616,0.268817204,0.335294118,0.358748778
363.624,0.267839687,0.319607843,0.358748778
363.632,0.26686217,0.31372549,0.358748778
363.64,0.265884653,0.294117647,0.357771261
363.648,0.264907136,0.290196078,0.357771261
363.656,0.263929619,0.278431373,0.357771261
363.664,0.262952102,0.264705882,0.357771261
363.672,0.261974585,0.245098039,0.356793744
363.68,0.260997067,0.229411765,0.356793744
363.688,0.260997067,0.219607843,0.356793744
363.696,0.260997067,0.2,0.356793744
363.704,0.261974585,0.188235294,0.355816227
363.712,0.261974585,0.164705882,0.355816227
363.72,0.261974585,0.133333333,0.355816227
363.728,0.261974585,0.109803922,0.355816227
363.736,0.261974585,0.088235294,0.35483871
363.744,0.260997067,0.058823529,0.35483871
363.752,0.260997067,0.039215686,0.35483871
363.76,0.260997067,0.01372549,0.35483871
363.768,0.260997067,-0.001960784,0.353861193
363.776,0.260997067,-0.011764706,0.353861193
363.784,0.260997067,-0.011764706,0.353861193
363.792,0.260997067,-0.011764706,0.35483871
363.8,0.261974585,0.003921569,0.35483871
363.808,0.261974585,0.017647059,0.355816227
363.816,0.260997067,0.039215686,0.356793744
363.824,0.260997067,0.062745098,0.357771261
363.832,0.26001955,0.098039216,0.359726295
363.84,0.259042033,0.123529412,0.360703812
363.848,0.258064516,0.164705882,0.363636364
363.856,0.257086999,0.2,0.366568915
363.864,0.256109482,0.229411765,0.369501466
363.872,0.256109482,0.264705882,0.373411535
363.88,0.256109482,0.303921569,0.379276637
363.888,0.255131965,0.329411765,0.384164223
363.896,0.256109482,0.349019608,0.390029326
363.904,0.257086999,0.374509804,0.395894428
363.912,0.257086999,0.390196078,0.400782014
363.92,0.257086999,0.409803922,0.405669599
363.928,0.258064516,0.403921569,0.410557185
363.936,0.258064516,0.409803922,0.41544477
363.944,0.258064516,0.415686275,0.420332356
363.952,0.259042033,0.409803922,0.425219941
363.96,0.260997067,0.409803922,0.430107527
363.968,0.264907136,0.415686275,0.43597263
363.976,0.27370479,0.403921569,0.439882698
363.984,0.288367546,0.409803922,0.443792766
363.992,0.305962854,0.403921569,0.446725318
364,0.329423265,0.409803922,0.449657869
364.008,0.363636364,0.419607843,0.451612903
364.016,0.405669599,0.409803922,0.453567937
364.024,0.45259042,0.425490196,0.453567937
364.032,0.501466276,0.435294118,0.454545455
364.04,0.549364614,0.454901961,0.453567937
364.048,0.593352884,0.454901961,0.45259042
364.056,0.631476051,0.460784314,0.450635386
364.064,0.661779081,0.470588235,0.448680352
364.072,0.687194526,0.460784314,0.445747801
364.08,0.706744868,0.464705882,0.443792766
364.088,0.720430108,0.470588235,0.439882698
364.096,0.729227761,0.460784314,0.43597263
364.104,0.735092864,0.474509804,0.431085044
364.112,0.739002933,0.464705882,0.425219941
364.12,0.742913001,0.464705882,0.418377322
364.128,0.744868035,0.460784314,0.411534702
364.136,0.746823069,0.470588235,0.404692082
364.144,0.746823069,0.454901961,0.397849462
364.152,0.745845552,0.460784314,0.39198436
364.16,0.743890518,0.454901961,0.38514174
364.168,0.73998045,0.460784314,0.37829912
364.176,0.735092864,0.464705882,0.370478983
364.184,0.728250244,0.480392157,0.362658847
364.192,0.720430108,0.464705882,0.35483871
364.2,0.711632454,0.460784314,0.347018573
364.208,0.699902248,0.470588235,0.339198436
364.216,0.687194526,0.480392157,0.331378299
364.224,0.672531769,0.460784314,0.324535679
364.232,0.654936461,0.454901961,0.316715543
364.24,0.636363636,0.445098039,0.309872923
364.248,0.616813294,0.419607843,0.303030303
364.256,0.595307918,0.403921569,0.296187683
364.264,0.573802542,0.4,0.289345064
364.272,0.552297165,0.409803922,0.282502444
364.28,0.531769306,0.425490196,0.275659824
364.288,0.513196481,0.425490196,0.269794721
364.296,0.49657869,0.403921569,0.263929619
364.304,0.483870968,0.419607843,0.258064516
364.312,0.471163245,0.409803922,0.253176931
364.32,0.45943304,0.409803922,0.247311828
364.328,0.449657869,0.4,0.241446725
364.336,0.440860215,0.394117647,0.23655914
364.344,0.433040078,0.4,0.22971652
364.352,0.425219941,0.403921569,0.223851417
364.36,0.417399804,0.4,0.217008798
364.368,0.410557185,0.403921569,0.211143695
364.376,0.402737048,0.390196078,0.204301075
364.384,0.394916911,0.4,0.198435973
364.392,0.389051808,0.4,0.19257087
364.4,0.382209189,0.384313725,0.187683284
364.408,0.375366569,0.384313725,0.181818182
364.416,0.368523949,0.384313725,0.176930596
364.424,0.361681329,0.384313725,0.171065494
364.432,0.355816227,0.384313725,0.166177908
364.44,0.348973607,0.384313725,0.160312805
364.448,0.343108504,0.384313725,0.154447703
364.456,0.337243402,0.358823529,0.149560117
364.464,0.331378299,0.309803922,0.144672532
364.472,0.325513196,0.380392157,0.140762463
364.48,0.319648094,0.584313725,0.136852395
364.488,0.314760508,0.876470588,0.132942326
364.496,0.309872923,0.505882353,0.129032258
364.504,0.306940371,0.017647059,0.12512219
364.512,0.303030303,-0.298039216,0.121212121
364.52,0.299120235,-0.382352941,0.11827957
364.528,0.294232649,-0.27254902,0.115347019
364.536,0.291300098,-0.041176471,0.112414467
364.544,0.287390029,0.062745098,0.110459433
364.552,0.283479961,0.068627451,0.108504399
364.56,0.28054741,0.049019608,0.106549365
364.568,0.276637341,0.143137255,0.105571848
364.576,0.27370479,0.284313725,0.103616813
364.584,0.271749756,0.358823529,0.102639296
364.592,0.269794721,0.374509804,0.101661779
364.6,0.267839687,0.394117647,0.101661779
364.608,0.26686217,0.390196078,0.100684262
364.616,0.264907136,0.374509804,0.100684262
364.624,0.263929619,0.364705882,0.100684262
364.632,0.262952102,0.364705882,0.101661779
364.64,0.260997067,0.345098039,0.101661779
364.648,0.26001955,0.335294118,0.102639296
364.656,0.259042033,0.319607843,0.103616813
364.664,0.257086999,0.303921569,0.10459433
364.672,0.256109482,0.309803922,0.106549365
364.68,0.255131965,0.294117647,0.107526882
364.688,0.255131965,0.278431373,0.108504399
364.696,0.255131965,0.268627451,0.108504399
364.704,0.254154448,0.258823529,0.109481916
364.712,0.254154448,0.245098039,0.110459433
364.72,0.254154448,0.233333333,0.11143695
364.728,0.253176931,0.209803922,0.112414467
364.736,0.253176931,0.194117647,0.113391984
364.744,0.252199413,0.174509804,0.114369501
364.752,0.252199413,0.149019608,0.114369501
364.76,0.251221896,0.123529412,0.114369501
364.768,0.251221896,0.103921569,0.114369501
364.776,0.251221896,0.074509804,0.114369501
364.784,0.251221896,0.052941176,0.114369501
364.792,0.251221896,0.033333333,0.115347019
364.8,0.252199413,0.029411765,0.116324536
364.808,0.252199413,0.01372549,0.116324536
364.816,0.252199413,0.007843137,0.117302053
364.824,0.252199413,0.017647059,0.117302053
364.832,0.251221896,0.033333333,0.11827957
364.84,0.250244379,0.049019608,0.119257087
364.848,0.250244379,0.068627451,0.121212121
364.856,0.250244379,0.098039216,0.124144673
364.864,0.249266862,0.129411765,0.127077224
364.872,0.249266862,0.168627451,0.130987292
364.88,0.249266862,0.203921569,0.134897361
364.888,0.250244379,0.239215686,0.138807429
364.896,0.250244379,0.268627451,0.143695015
364.904,0.251221896,0.309803922,0.1485826
364.912,0.251221896,0.339215686,0.153470186
364.92,0.251221896,0.374509804,0.159335288
364.928,0.251221896,0.390196078,0.165200391
364.936,0.251221896,0.409803922,0.171065494
364.944,0.251221896,0.429411765,0.175953079
364.952,0.251221896,0.445098039,0.180840665
364.96,0.251221896,0.454901961,0.18572825
364.968,0.251221896,0.460784314,0.190615836
364.976,0.251221896,0.454901961,0.195503421
364.984,0.251221896,0.454901961,0.200391007
364.992,0.252199413,0.460784314,0.205278592
365,0.255131965,0.454901961,0.208211144
365.008,0.261974585,0.454901961,0.212121212
365.016,0.27370479,0.454901961,0.215053763
365.024,0.292277615,0.454901961,0.217986315
365.032,0.318670577,0.464705882,0.220918866
365.04,0.35483871,0.470588235,0.2228739
365.048,0.396871945,0.480392157,0.224828935
365.056,0.444770283,0.480392157,0.226783969
365.064,0.493646139,0.484313725,0.227761486
365.072,0.550342131,0.494117647,0.22971652
365.08,0.601173021,0.5,0.230694037
365.088,0.635386119,0.505882353,0.231671554
365.096,0.65884653,0.509803922,0.232649071
365.104,0.679374389,0.515686275,0.233626588
365.112,0.699902248,0.509803922,0.234604106
365.12,0.712609971,0.519607843,0.234604106
365.128,0.720430108,0.515686275,0.235581623
365.136,0.729227761,0.519607843,0.23655914
365.144,0.736070381,0.509803922,0.23655914
365.152,0.73998045,0.515686275,0.237536657
365.16,0.741935484,0.509803922,0.238514174
365.168,0.742913001,0.515686275,0.239491691
365.176,0.742913001,0.509803922,0.240469208
365.184,0.741935484,0.509803922,0.241446725
365.192,0.739002933,0.515686275,0.242424242
365.2,0.73313783,0.509803922,0.24340176
365.208,0.728250244,0.525490196,0.244379277
365.216,0.721407625,0.519607843,0.245356794
365.224,0.710654936,0.509803922,0.247311828
365.232,0.698924731,0.519607843,0.248289345
365.24,0.68914956,0.525490196,0.251221896
365.248,0.675464321,0.515686275,0.253176931
365.256,0.654936461,0.505882353,0.256109482
365.264,0.634408602,0.490196078,0.258064516
365.272,0.613880743,0.474509804,0.260997067
365.28,0.594330401,0.460784314,0.262952102
365.288,0.576735093,0.460784314,0.265884653
365.296,0.557184751,0.464705882,0.269794721
365.304,0.537634409,0.464705882,0.272727273
365.312,0.519061584,0.460784314,0.276637341
365.32,0.502443793,0.460784314,0.279569892
365.328,0.487781036,0.460784314,0.282502444
365.336,0.474095797,0.454901961,0.285434995
365.344,0.463343109,0.445098039,0.288367546
365.352,0.453567937,0.449019608,0.291300098
365.36,0.445747801,0.449019608,0.294232649
365.368,0.437927664,0.445098039,0.296187683
365.376,0.430107527,0.445098039,0.299120235
365.384,0.424242424,0.449019608,0.301075269
365.392,0.417399804,0.449019608,0.303030303
365.4,0.410557185,0.445098039,0.304985337
365.408,0.403714565,0.445098039,0.305962854
365.416,0.395894428,0.439215686,0.306940371
365.424,0.389051808,0.439215686,0.308895406
365.432,0.382209189,0.435294118,0.308895406
365.44,0.374389052,0.439215686,0.309872923
365.448,0.367546432,0.435294118,0.31085044
365.456,0.361681329,0.435294118,0.312805474
365.464,0.35483871,0.435294118,0.313782991
365.472,0.348973607,0.425490196,0.314760508
365.48,0.344086022,0.4,0.316715543
365.488,0.339198436,0.358823529,0.318670577
365.496,0.33431085,0.445098039,0.319648094
365.504,0.328445748,0.705882353,0.321603128
365.512,0.323558162,0.890196078,0.322580645
365.52,0.318670577,0.490196078,0.324535679
365.528,0.313782991,-0.021568627,0.325513196
365.536,0.308895406,-0.301960784,0.326490714
365.544,0.30400782,-0.352941176,0.327468231
365.552,0.299120235,-0.18627451,0.327468231
365.56,0.295210166,0.003921569,0.328445748
365.568,0.292277615,0.088235294,0.328445748
365.576,0.288367546,0.078431373,0.329423265
365.584,0.286412512,0.109803922,0.330400782
365.592,0.284457478,0.223529412,0.331378299
365.6,0.282502444,0.354901961,0.333333333
365.608,0.28054741,0.394117647,0.33431085
365.616,0.277614858,0.403921569,0.336265885
365.624,0.275659824,0.409803922,0.337243402
365.632,0.274682307,0.409803922,0.339198436
365.64,0.272727273,0.394117647,0.34115347
365.648,0.270772239,0.384313725,0.342130987
365.656,0.269794721,0.374509804,0.344086022
365.664,0.268817204,0.364705882,0.346041056
365.672,0.267839687,0.354901961,0.34799609
365.68,0.26686217,0.345098039,0.349951124
365.688,0.26686217,0.339215686,0.351906158
365.696,0.265884653,0.323529412,0.353861193
365.704,0.265884653,0.31372549,0.355816227
365.712,0.264907136,0.3,0.357771261
365.72,0.263929619,0.294117647,0.359726295
365.728,0.262952102,0.278431373,0.362658847
365.736,0.261974585,0.264705882,0.363636364
365.744,0.260997067,0.245098039,0.365591398
365.752,0.260997067,0.223529412,0.366568915
365.76,0.26001955,0.2,0.367546432
365.768,0.259042033,0.184313725,0.369501466
365.776,0.259042033,0.154901961,0.370478983
365.784,0.259042033,0.139215686,0.3714565
365.792,0.26001955,0.11372549,0.373411535
365.8,0.26001955,0.094117647,0.375366569
365.808,0.260997067,0.074509804,0.376344086
365.816,0.26001955,0.058823529,0.37829912
365.824,0.26001955,0.043137255,0.380254154
365.832,0.26001955,0.039215686,0.382209189
365.84,0.26001955,0.033333333,0.384164223
365.848,0.26001955,0.043137255,0.386119257
365.856,0.259042033,0.052941176,0.388074291
365.864,0.259042033,0.074509804,0.390029326
365.872,0.258064516,0.094117647,0.392961877
365.88,0.258064516,0.129411765,0.395894428
365.888,0.259042033,0.164705882,0.398826979
365.896,0.258064516,0.194117647,0.402737048
365.904,0.258064516,0.223529412,0.405669599
365.912,0.258064516,0.258823529,0.409579668
365.92,0.257086999,0.3,0.413489736
365.928,0.257086999,0.329411765,0.418377322
365.936,0.257086999,0.354901961,0.423264907
365.944,0.257086999,0.380392157,0.42913001
365.952,0.257086999,0.409803922,0.434995112
365.96,0.258064516,0.425490196,0.441837732
365.968,0.259042033,0.439215686,0.447702835
365.976,0.259042033,0.445098039,0.453567937
365.984,0.26001955,0.460784314,0.460410557
365.992,0.261974585,0.454901961,0.465298143
366,0.262952102,0.460784314,0.471163245
366.008,0.264907136,0.454901961,0.476050831
366.016,0.269794721,0.454901961,0.479960899
366.024,0.278592375,0.454901961,0.484848485
366.032,0.294232649,0.454901961,0.488758553
366.04,0.31769306,0.454901961,0.493646139
366.048,0.350928641,0.454901961,0.497556207
366.056,0.391006843,0.460784314,0.501466276
366.064,0.437927664,0.464705882,0.504398827
366.072,0.487781036,0.470588235,0.507331378
366.08,0.530791789,0.474509804,0.509286413
366.088,0.568914956,0.480392157,0.511241447
366.096,0.60801564,0.490196078,0.513196481
366.104,0.644183773,0.5,0.514173998
366.112,0.674486804,0.5,0.515151515
366.12,0.699902248,0.505882353,0.515151515
366.128,0.71945259,0.505882353,0.515151515
366.136,0.734115347,0.505882353,0.515151515
366.144,0.745845552,0.505882353,0.514173998
366.152,0.753665689,0.505882353,0.512218964
366.16,0.759530792,0.505882353,0.511241447
366.168,0.76344086,0.509803922,0.508308895
366.176,0.766373412,0.505882353,0.505376344
366.184,0.765395894,0.505882353,0.50342131
366.192,0.76344086,0.494117647,0.500488759
366.2,0.762463343,0.494117647,0.497556207
366.208,0.760508309,0.484313725,0.494623656
366.216,0.757575758,0.484313725,0.492668622
366.224,0.752688172,0.490196078,0.48973607
366.232,0.746823069,0.494117647,0.486803519
366.24,0.738025415,0.505882353,0.483870968
366.248,0.728250244,0.505882353,0.480938416
366.256,0.716520039,0.494117647,0.478983382
366.264,0.7028348,0.490196078,0.476050831
366.272,0.686217009,0.494117647,0.47311828
366.28,0.669599218,0.505882353,0.471163245
366.288,0.652981427,0.5,0.470185728
366.296,0.633431085,0.484313725,0.469208211
366.304,0.611925709,0.474509804,0.468230694
366.312,0.590420332,0.445098039,0.467253177
366.32,0.568914956,0.429411765,0.46627566
366.328,0.548387097,0.435294118,0.46627566
366.336,0.529814272,0.439215686,0.465298143
366.344,0.513196481,0.439215686,0.465298143
366.352,0.498533724,0.435294118,0.465298143
366.36,0.485826002,0.435294118,0.465298143
366.368,0.475073314,0.435294118,0.46627566
366.376,0.465298143,0.429411765,0.46627566
366.384,0.457478006,0.419607843,0.46627566
366.392,0.449657869,0.415686275,0.46627566
366.4,0.441837732,0.425490196,0.46627566
366.408,0.434017595,0.429411765,0.46627566
366.416,0.425219941,0.419607843,0.46627566
366.424,0.417399804,0.419607843,0.46627566
366.432,0.409579668,0.425490196,0.46627566
366.44,0.400782014,0.415686275,0.465298143
366.448,0.392961877,0.409803922,0.464320626
366.456,0.38514174,0.419607843,0.463343109
366.464,0.377321603,0.415686275,0.461388074
366.472,0.369501466,0.419607843,0.460410557
366.48,0.363636364,0.415686275,0.45943304
366.488,0.358748778,0.419607843,0.458455523
366.496,0.352883675,0.409803922,0.457478006
366.504,0.347018573,0.403921569,0.456500489
366.512,0.34115347,0.403921569,0.455522972
366.52,0.335288368,0.380392157,0.453567937
366.528,0.330400782,0.335294118,0.451612903
366.536,0.324535679,0.370588235,0.449657869
366.544,0.318670577,0.560784314,0.447702835
366.552,0.313782991,0.876470588,0.445747801
366.56,0.308895406,0.609803922,0.443792766
366.568,0.30400782,0.11372549,0.441837732
366.576,0.300097752,-0.262745098,0.439882698
366.584,0.2971652,-0.382352941,0.437927664
366.592,0.294232649,-0.298039216,0.436950147
366.6,0.290322581,-0.07254902,0.43597263
366.608,0.287390029,0.033333333,0.434017595
366.616,0.284457478,0.049019608,0.433040078
366.624,0.281524927,0.039215686,0.433040078
366.632,0.279569892,0.139215686,0.432062561
366.64,0.277614858,0.284313725,0.432062561
366.648,0.275659824,0.364705882,0.432062561
366.656,0.27370479,0.374509804,0.433040078
366.664,0.271749756,0.380392157,0.433040078
366.672,0.270772239,0.384313725,0.434017595
366.68,0.269794721,0.364705882,0.434995112
366.688,0.269794721,0.358823529,0.43597263
366.696,0.268817204,0.354901961,0.436950147
366.704,0.267839687,0.339215686,0.438905181
366.712,0.26686217,0.335294118,0.439882698
366.72,0.265884653,0.319607843,0.441837732
366.728,0.264907136,0.3,0.442815249
366.736,0.263929619,0.290196078,0.444770283
366.744,0.262952102,0.278431373,0.445747801
366.752,0.262952102,0.274509804,0.447702835
366.76,0.261974585,0.258823529,0.449657869
366.768,0.261974585,0.254901961,0.451612903
366.776,0.261974585,0.229411765,0.45259042
366.784,0.262952102,0.219607843,0.454545455
366.792,0.262952102,0.2,0.455522972
366.8,0.262952102,0.178431373,0.457478006
366.808,0.261974585,0.154901961,0.458455523
366.816,0.261974585,0.133333333,0.45943304
366.824,0.260997067,0.11372549,0.45943304
366.832,0.260997067,0.088235294,0.460410557
366.84,0.260997067,0.058823529,0.460410557
366.848,0.260997067,0.043137255,0.461388074
366.856,0.260997067,0.023529412,0.461388074
366.864,0.260997067,0.01372549,0.462365591
366.872,0.260997067,0.003921569,0.463343109
366.88,0.261974585,-0.005882353,0.464320626
366.888,0.262952102,-0.001960784,0.465298143
366.896,0.262952102,0.007843137,0.467253177
366.904,0.262952102,0.017647059,0.468230694
366.912,0.261974585,0.043137255,0.470185728
366.92,0.260997067,0.078431373,0.472140762
366.928,0.26001955,0.109803922,0.474095797
366.936,0.259042033,0.143137255,0.476050831
366.944,0.258064516,0.174509804,0.478983382
366.952,0.257086999,0.219607843,0.481915934
366.96,0.257086999,0.249019608,0.484848485
366.968,0.257086999,0.284313725,0.488758553
366.976,0.257086999,0.309803922,0.492668622
366.984,0.258064516,0.339215686,0.49657869
366.992,0.259042033,0.364705882,0.500488759
367,0.26001955,0.380392157,0.505376344
367.008,0.26001955,0.403921569,0.51026393
367.016,0.260997067,0.415686275,0.515151515
367.024,0.261974585,0.419607843,0.519061584
367.032,0.261974585,0.415686275,0.523949169
367.04,0.261974585,0.419607843,0.528836755
367.048,0.262952102,0.425490196,0.532746823
367.056,0.265884653,0.415686275,0.537634409
367.064,0.27370479,0.409803922,0.541544477
367.072,0.287390029,0.419607843,0.546432063
367.08,0.304985337,0.415686275,0.549364614
367.088,0.327468231,0.419607843,0.553274682
367.096,0.360703812,0.415686275,0.555229717
367.104,0.402737048,0.429411765,0.558162268
367.112,0.451612903,0.435294118,0.559139785
367.12,0.501466276,0.439215686,0.561094819
367.128,0.551319648,0.439215686,0.562072336
367.136,0.598240469,0.454901961,0.563049853
367.144,0.639296188,0.454901961,0.563049853
367.152,0.672531769,0.464705882,0.562072336
367.16,0.699902248,0.470588235,0.561094819
367.168,0.721407625,0.480392157,0.559139785
367.176,0.735092864,0.480392157,0.557184751
367.184,0.743890518,0.464705882,0.555229717
367.192,0.751710655,0.474509804,0.553274682
367.2,0.757575758,0.480392157,0.550342131
367.208,0.762463343,0.480392157,0.546432063
367.216,0.765395894,0.480392157,0.542521994
367.224,0.766373412,0.464705882,0.536656891
367.232,0.766373412,0.480392157,0.530791789
367.24,0.765395894,0.470588235,0.524926686
367.248,0.76344086,0.464705882,0.518084066
367.256,0.759530792,0.474509804,0.512218964
367.264,0.754643206,0.484313725,0.505376344
367.272,0.747800587,0.480392157,0.499511241
367.28,0.73998045,0.490196078,0.492668622
367.288,0.730205279,0.474509804,0.486803519
367.296,0.718475073,0.480392157,0.479960899
367.304,0.704789834,0.474509804,0.474095797
367.312,0.688172043,0.480392157,0.468230694
367.32,0.670576735,0.474509804,0.462365591
367.328,0.651026393,0.454901961,0.456500489
367.336,0.629521017,0.449019608,0.450635386
367.344,0.607038123,0.435294118,0.445747801
367.352,0.58455523,0.425490196,0.440860215
367.36,0.562072336,0.425490196,0.43597263
367.368,0.54056696,0.429411765,0.431085044
367.376,0.522971652,0.435294118,0.426197458
367.384,0.507331378,0.425490196,0.421309873
367.392,0.491691105,0.419607843,0.41544477
367.4,0.478005865,0.435294118,0.410557185
367.408,0.465298143,0.425490196,0.405669599
367.416,0.455522972,0.429411765,0.400782014
367.424,0.445747801,0.419607843,0.394916911
367.432,0.436950147,0.409803922,0.390029326
367.44,0.42913001,0.409803922,0.38514174
367.448,0.421309873,0.419607843,0.379276637
367.456,0.414467253,0.409803922,0.374389052
367.464,0.406647116,0.419607843,0.368523949
367.472,0.398826979,0.409803922,0.362658847
367.48,0.39198436,0.409803922,0.356793744
367.488,0.386119257,0.403921569,0.349951124
367.496,0.379276637,0.4,0.345063539
367.504,0.3714565,0.409803922,0.339198436
367.512,0.364613881,0.409803922,0.33431085
367.52,0.357771261,0.409803922,0.329423265
367.528,0.350928641,0.4,0.323558162
367.536,0.344086022,0.4,0.318670577
367.544,0.338220919,0.403921569,0.312805474
367.552,0.332355816,0.374509804,0.306940371
367.56,0.326490714,0.339215686,0.300097752
367.568,0.320625611,0.384313725,0.293255132
367.576,0.316715543,0.615686275,0.285434995
367.584,0.312805474,0.88627451,0.278592375
367.592,0.308895406,0.529411765,0.271749756
367.6,0.304985337,0.003921569,0.265884653
367.608,0.300097752,-0.298039216,0.26001955
367.616,0.296187683,-0.366666667,0.255131965
367.624,0.292277615,-0.252941176,0.250244379
367.632,0.288367546,-0.037254902,0.245356794
367.64,0.285434995,0.058823529,0.240469208
367.648,0.282502444,0.062745098,0.235581623
367.656,0.279569892,0.058823529,0.231671554
367.664,0.276637341,0.164705882,0.227761486
367.672,0.27370479,0.309803922,0.223851417
367.68,0.271749756,0.380392157,0.220918866
367.688,0.270772239,0.384313725,0.217008798
367.696,0.268817204,0.409803922,0.214076246
367.704,0.267839687,0.403921569,0.212121212
367.712,0.265884653,0.384313725,0.209188661
367.72,0.263929619,0.380392157,0.207233627
367.728,0.261974585,0.370588235,0.204301075
367.736,0.260997067,0.364705882,0.202346041
367.744,0.259042033,0.349019608,0.200391007
367.752,0.258064516,0.339215686,0.198435973
367.76,0.256109482,0.329411765,0.196480938
367.768,0.255131965,0.31372549,0.194525904
367.776,0.255131965,0.309803922,0.19257087
367.784,0.255131965,0.3,0.191593353
367.792,0.254154448,0.290196078,0.189638319
367.8,0.253176931,0.278431373,0.187683284
367.808,0.252199413,0.264705882,0.186705767
367.816,0.252199413,0.249019608,0.184750733
367.824,0.252199413,0.233333333,0.183773216
367.832,0.251221896,0.219607843,0.181818182
367.84,0.251221896,0.194117647,0.180840665
367.848,0.251221896,0.174509804,0.17888563
367.856,0.251221896,0.154901961,0.176930596
367.864,0.251221896,0.129411765,0.174975562
367.872,0.251221896,0.103921569,0.173020528
367.88,0.251221896,0.088235294,0.171065494
367.888,0.251221896,0.068627451,0.169110459
367.896,0.250244379,0.052941176,0.167155425
367.904,0.250244379,0.049019608,0.165200391
367.912,0.250244379,0.049019608,0.164222874
367.92,0.249266862,0.052941176,0.164222874
367.928,0.249266862,0.058823529,0.163245357
367.936,0.249266862,0.078431373,0.163245357
367.944,0.249266862,0.098039216,0.164222874
367.952,0.249266862,0.129411765,0.165200391
367.96,0.248289345,0.158823529,0.168132942
367.968,0.248289345,0.194117647,0.170087977
367.976,0.248289345,0.223529412,0.173020528
367.984,0.249266862,0.264705882,0.175953079
367.992,0.249266862,0.294117647,0.179863148
368,0.249266862,0.335294118,0.183773216
368.008,0.249266862,0.364705882,0.188660802
368.016,0.249266862,0.390196078,0.194525904
368.024,0.249266862,0.415686275,0.200391007
368.032,0.249266862,0.435294118,0.206256109
368.04,0.249266862,0.449019608,0.213098729
368.048,0.249266862,0.464705882,0.219941349
368.056,0.249266862,0.470588235,0.225806452
368.064,0.249266862,0.474509804,0.232649071
368.072,0.250244379,0.474509804,0.238514174
368.08,0.251221896,0.480392157,0.245356794
368.088,0.254154448,0.480392157,0.250244379
368.096,0.259042033,0.474509804,0.256109482
368.104,0.269794721,0.480392157,0.260997067
368.112,0.286412512,0.480392157,0.26686217
368.12,0.311827957,0.480392157,0.270772239
368.128,0.346041056,0.480392157,0.275659824
368.136,0.387096774,0.480392157,0.279569892
368.144,0.434017595,0.484313725,0.283479961
368.152,0.482893451,0.490196078,0.286412512
368.16,0.529814272,0.505882353,0.290322581
368.168,0.573802542,0.509803922,0.292277615
368.176,0.60801564,0.519607843,0.294232649
368.184,0.634408602,0.525490196,0.295210166
368.192,0.657869013,0.525490196,0.296187683
368.2,0.678396872,0.529411765,0.2971652
368.208,0.694037146,0.529411765,0.298142717
368.216,0.706744868,0.535294118,0.298142717
368.224,0.715542522,0.529411765,0.299120235
368.232,0.722385142,0.525490196,0.298142717
368.24,0.72629521,0.535294118,0.298142717
368.248,0.729227761,0.535294118,0.298142717
368.256,0.731182796,0.525490196,0.2971652
368.264,0.731182796,0.525490196,0.296187683
368.272,0.730205279,0.525490196,0.296187683
368.28,0.72629521,0.519607843,0.295210166
368.288,0.722385142,0.525490196,0.295210166
368.296,0.718475073,0.515686275,0.294232649
368.304,0.712609971,0.525490196,0.294232649
368.312,0.704789834,0.525490196,0.294232649
368.32,0.69599218,0.525490196,0.293255132
368.328,0.685239492,0.519607843,0.294232649
368.336,0.672531769,0.525490196,0.294232649
368.344,0.657869013,0.525490196,0.295210166
368.352,0.641251222,0.519607843,0.296187683
368.36,0.622678397,0.505882353,0.2971652
368.368,0.603128055,0.494117647,0.299120235
368.376,0.583577713,0.474509804,0.301075269
368.384,0.565982405,0.460784314,0.30400782
368.392,0.545454545,0.454901961,0.304985337
368.4,0.525904203,0.464705882,0.306940371
368.408,0.507331378,0.460784314,0.308895406
368.416,0.48973607,0.464705882,0.309872923
368.424,0.475073314,0.454901961,0.31085044
368.432,0.461388074,0.460784314,0.311827957
368.44,0.450635386,0.454901961,0.312805474
368.448,0.441837732,0.445098039,0.313782991
368.456,0.434017595,0.445098039,0.313782991
368.464,0.427174976,0.449019608,0.314760508
368.472,0.421309873,0.445098039,0.314760508
368.48,0.41544477,0.445098039,0.314760508
368.488,0.409579668,0.435294118,0.315738025
368.496,0.402737048,0.435294118,0.315738025
368.504,0.394916911,0.439215686,0.315738025
368.512,0.388074291,0.439215686,0.315738025
368.52,0.380254154,0.435294118,0.315738025
368.528,0.373411535,0.435294118,0.315738025
368.536,0.365591398,0.435294118,0.315738025
368.544,0.358748778,0.435294118,0.315738025
368.552,0.351906158,0.435294118,0.315738025
368.56,0.346041056,0.435294118,0.315738025
368.568,0.340175953,0.429411765,0.315738025
368.576,0.335288368,0.419607843,0.315738025
368.584,0.331378299,0.403921569,0.315738025
368.592,0.327468231,0.358823529,0.315738025
368.6,0.322580645,0.409803922,0.315738025
368.608,0.31769306,0.635294118,0.315738025
368.616,0.313782991,0.915686275,0.314760508
368.624,0.308895406,0.584313725,0.314760508
368.632,0.30400782,0.058823529,0.314760508
368.64,0.300097752,-0.266666667,0.314760508
368.648,0.296187683,-0.347058824,0.314760508
368.656,0.292277615,-0.237254902,0.315738025
368.664,0.289345064,-0.021568627,0.316715543
368.672,0.286412512,0.074509804,0.31769306
368.68,0.284457478,0.088235294,0.318670577
368.688,0.282502444,0.078431373,0.319648094
368.696,0.279569892,0.203921569,0.320625611
368.704,0.277614858,0.349019608,0.322580645
368.712,0.274682307,0.403921569,0.323558162
368.72,0.272727273,0.409803922,0.324535679
368.728,0.271749756,0.415686275,0.325513196
368.736,0.269794721,0.425490196,0.326490714
368.744,0.267839687,0.403921569,0.328445748
368.752,0.26686217,0.394117647,0.329423265
368.76,0.265884653,0.384313725,0.332355816
368.768,0.264907136,0.370588235,0.33431085
368.776,0.263929619,0.364705882,0.336265885
368.784,0.263929619,0.354901961,0.338220919
368.792,0.263929619,0.339215686,0.339198436
368.8,0.262952102,0.329411765,0.340175953
368.808,0.261974585,0.31372549,0.342130987
368.816,0.260997067,0.303921569,0.343108504
368.824,0.26001955,0.284313725,0.345063539
368.832,0.259042033,0.274509804,0.347018573
368.84,0.259042033,0.258823529,0.34799609
368.848,0.258064516,0.239215686,0.348973607
368.856,0.257086999,0.219607843,0.349951124
368.864,0.257086999,0.209803922,0.350928641
368.872,0.257086999,0.178431373,0.350928641
368.88,0.258064516,0.164705882,0.351906158
368.888,0.258064516,0.133333333,0.352883675
368.896,0.259042033,0.109803922,0.352883675
368.904,0.259042033,0.088235294,0.352883675
368.912,0.259042033,0.068627451,0.353861193
368.92,0.259042033,0.052941176,0.353861193
368.928,0.26001955,0.033333333,0.353861193
368.936,0.26001955,0.029411765,0.35483871
368.944,0.26001955,0.029411765,0.35483871
368.952,0.26001955,0.033333333,0.355816227
368.96,0.26001955,0.043137255,0.357771261
368.968,0.259042033,0.062745098,0.358748778
368.976,0.259042033,0.084313725,0.360703812
368.984,0.259042033,0.109803922,0.363636364
368.992,0.259042033,0.143137255,0.366568915
369,0.258064516,0.178431373,0.370478983
369.008,0.257086999,0.21372549,0.374389052
369.016,0.256109482,0.254901961,0.379276637
369.024,0.256109482,0.278431373,0.38514174
369.032,0.256109482,0.309803922,0.390029326
369.04,0.256109482,0.345098039,0.395894428
369.048,0.256109482,0.380392157,0.400782014
369.056,0.257086999,0.394117647,0.405669599
369.064,0.258064516,0.415686275,0.412512219
369.072,0.26001955,0.435294118,0.419354839
369.08,0.260997067,0.439215686,0.427174976
369.088,0.262952102,0.445098039,0.434995112
369.096,0.262952102,0.454901961,0.440860215
369.104,0.263929619,0.454901961,0.447702835
369.112,0.264907136,0.454901961,0.453567937
369.12,0.267839687,0.454901961,0.45943304
369.128,0.27370479,0.454901961,0.464320626
369.136,0.286412512,0.454901961,0.470185728
369.144,0.305962854,0.449019608,0.476050831
369.152,0.33431085,0.449019608,0.481915934
369.16,0.370478983,0.454901961,0.486803519
369.168,0.413489736,0.464705882,0.491691105
369.176,0.453567937,0.464705882,0.494623656
369.184,0.492668622,0.474509804,0.498533724
369.192,0.536656891,0.480392157,0.500488759
369.2,0.578690127,0.490196078,0.50342131
369.208,0.616813294,0.490196078,0.504398827
369.216,0.650048876,0.5,0.506353861
369.224,0.675464321,0.5,0.506353861
369.232,0.69599218,0.505882353,0.506353861
369.24,0.710654936,0.505882353,0.505376344
369.248,0.722385142,0.509803922,0.504398827
369.256,0.730205279,0.505882353,0.502443793
369.264,0.736070381,0.515686275,0.500488759
369.272,0.738025415,0.505882353,0.498533724
369.28,0.738025415,0.509803922,0.49657869
369.288,0.739002933,0.5,0.493646139
369.296,0.738025415,0.5,0.490713587
369.304,0.737047898,0.5,0.487781036
369.312,0.735092864,0.5,0.484848485
369.32,0.731182796,0.505882353,0.480938416
369.328,0.727272727,0.494117647,0.477028348
369.336,0.720430108,0.505882353,0.47311828
369.344,0.713587488,0.505882353,0.469208211
369.352,0.703812317,0.515686275,0.465298143
369.36,0.692082111,0.5,0.462365591
369.368,0.678396872,0.505882353,0.45943304
369.376,0.664711632,0.5,0.456500489
369.384,0.649071359,0.505882353,0.454545455
369.392,0.631476051,0.484313725,0.45259042
369.4,0.610948192,0.474509804,0.450635386
369.408,0.590420332,0.445098039,0.448680352
369.416,0.568914956,0.435294118,0.447702835
369.424,0.54740958,0.429411765,0.445747801
369.432,0.52688172,0.429411765,0.444770283
369.44,0.507331378,0.429411765,0.443792766
369.448,0.48973607,0.435294118,0.442815249
369.456,0.475073314,0.425490196,0.441837732
369.464,0.461388074,0.425490196,0.440860215
369.472,0.450635386,0.425490196,0.439882698
369.48,0.442815249,0.409803922,0.438905181
369.488,0.434995112,0.403921569,0.438905181
369.496,0.427174976,0.403921569,0.437927664
369.504,0.419354839,0.409803922,0.436950147
369.512,0.412512219,0.415686275,0.436950147
369.52,0.404692082,0.409803922,0.43597263
369.528,0.397849462,0.4,0.43597263
369.536,0.390029326,0.403921569,0.434995112
369.544,0.382209189,0.4,0.434995112
369.552,0.374389052,0.4,0.434017595
369.56,0.367546432,0.4,0.434017595
369.568,0.359726295,0.4,0.433040078
369.576,0.353861193,0.4,0.433040078
369.584,0.34799609,0.394117647,0.432062561
369.592,0.342130987,0.390196078,0.432062561
369.6,0.336265885,0.390196078,0.431085044
369.608,0.330400782,0.384313725,0.430107527
369.616,0.324535679,0.370588235,0.42913001
369.624,0.318670577,0.323529412,0.428152493
369.632,0.313782991,0.309803922,0.426197458
369.64,0.307917889,0.494117647,0.425219941
369.648,0.303030303,0.821568627,0.423264907
369.656,0.298142717,0.645098039,0.421309873
369.664,0.294232649,0.188235294,0.419354839
369.672,0.290322581,-0.22745098,0.417399804
369.68,0.287390029,-0.378431373,0.416422287
369.688,0.284457478,-0.317647059,0.414467253
369.696,0.281524927,-0.096078431,0.413489736
369.704,0.278592375,0.029411765,0.412512219
369.712,0.275659824,0.058823529,0.412512219
369.72,0.272727273,0.049019608,0.412512219
369.728,0.270772239,0.119607843,0.412512219
369.736,0.267839687,0.264705882,0.413489736
369.744,0.264907136,0.358823529,0.413489736
369.752,0.262952102,0.370588235,0.414467253
369.76,0.260997067,0.380392157,0.41544477
369.768,0.259042033,0.384313725,0.416422287
369.776,0.258064516,0.370588235,0.417399804
369.784,0.257086999,0.374509804,0.419354839
369.792,0.256109482,0.349019608,0.420332356
369.8,0.255131965,0.339215686,0.42228739
369.808,0.253176931,0.339215686,0.425219941
369.816,0.251221896,0.323529412,0.427174976
369.824,0.250244379,0.31372549,0.430107527
369.832,0.248289345,0.309803922,0.432062561
369.84,0.247311828,0.290196078,0.434017595
369.848,0.246334311,0.278431373,0.434995112
369.856,0.245356794,0.268627451,0.436950147
369.864,0.245356794,0.258823529,0.437927664
369.872,0.245356794,0.239215686,0.439882698
369.88,0.245356794,0.223529412,0.441837732
369.888,0.245356794,0.209803922,0.442815249
369.896,0.245356794,0.2,0.444770283
369.904,0.245356794,0.168627451,0.446725318
369.912,0.244379277,0.149019608,0.448680352
369.92,0.244379277,0.129411765,0.449657869
369.928,0.245356794,0.103921569,0.451612903
369.936,0.247311828,0.078431373,0.45259042
369.944,0.247311828,0.058823529,0.453567937
369.952,0.248289345,0.043137255,0.454545455
369.96,0.248289345,0.029411765,0.454545455
369.968,0.248289345,0.01372549,0.455522972
369.976,0.249266862,0.007843137,0.456500489
369.984,0.249266862,0.007843137,0.456500489
369.992,0.250244379,0.017647059,0.457478006
370,0.249266862,0.033333333,0.458455523
370.008,0.249266862,0.058823529,0.45943304
370.016,0.248289345,0.084313725,0.460410557
370.024,0.248289345,0.11372549,0.462365591
370.032,0.247311828,0.149019608,0.465298143
370.04,0.247311828,0.178431373,0.468230694
370.048,0.246334311,0.21372549,0.472140762
370.056,0.246334311,0.258823529,0.475073314
370.064,0.245356794,0.284313725,0.478005865
370.072,0.246334311,0.319607843,0.480938416
370.08,0.247311828,0.349019608,0.483870968
370.088,0.248289345,0.370588235,0.487781036
370.096,0.248289345,0.394117647,0.491691105
370.104,0.249266862,0.403921569,0.495601173
370.112,0.250244379,0.415686275,0.500488759
370.12,0.250244379,0.425490196,0.504398827
370.128,0.250244379,0.435294118,0.509286413
370.136,0.251221896,0.435294118,0.513196481
370.144,0.251221896,0.429411765,0.517106549
370.152,0.254154448,0.435294118,0.521016618
370.16,0.259042033,0.429411765,0.524926686
370.168,0.26686217,0.419607843,0.527859238
370.176,0.279569892,0.415686275,0.530791789
370.184,0.300097752,0.435294118,0.531769306
370.192,0.329423265,0.429411765,0.53372434
370.2,0.366568915,0.435294118,0.53372434
370.208,0.410557185,0.439215686,0.534701857
370.216,0.458455523,0.445098039,0.53372434
370.224,0.507331378,0.445098039,0.53372434
370.232,0.553274682,0.454901961,0.531769306
370.24,0.595307918,0.470588235,0.530791789
370.248,0.630498534,0.474509804,0.528836755
370.256,0.659824047,0.470588235,0.525904203
370.264,0.683284457,0.484313725,0.522971652
370.272,0.698924731,0.494117647,0.520039101
370.28,0.707722385,0.480392157,0.515151515
370.288,0.716520039,0.484313725,0.511241447
370.296,0.722385142,0.480392157,0.505376344
370.304,0.727272727,0.480392157,0.500488759
370.312,0.730205279,0.480392157,0.495601173
370.32,0.731182796,0.484313725,0.490713587
370.328,0.732160313,0.480392157,0.485826002
370.336,0.731182796,0.480392157,0.481915934
370.344,0.729227761,0.490196078,0.477028348
370.352,0.72629521,0.494117647,0.472140762
370.36,0.722385142,0.480392157,0.467253177
370.368,0.716520039,0.494117647,0.462365591
370.376,0.708699902,0.484313725,0.457478006
370.384,0.699902248,0.484313725,0.453567937
370.392,0.690127077,0.480392157,0.448680352
370.4,0.677419355,0.494117647,0.444770283
370.408,0.663734115,0.484313725,0.439882698
370.416,0.647116325,0.480392157,0.434995112
370.424,0.629521017,0.454901961,0.430107527
370.432,0.610948192,0.435294118,0.426197458
370.44,0.591397849,0.425490196,0.421309873
370.448,0.57086999,0.429411765,0.416422287
370.456,0.549364614,0.425490196,0.410557185
370.464,0.529814272,0.435294118,0.405669599
370.472,0.512218964,0.429411765,0.401759531
370.48,0.49657869,0.435294118,0.396871945
370.488,0.481915934,0.429411765,0.392961877
370.496,0.468230694,0.435294118,0.388074291
370.504,0.456500489,0.415686275,0.384164223
370.512,0.446725318,0.409803922,0.379276637
370.52,0.437927664,0.419607843,0.375366569
370.528,0.430107527,0.415686275,0.370478983
370.536,0.423264907,0.419607843,0.366568915
370.544,0.416422287,0.425490196,0.363636364
370.552,0.409579668,0.419607843,0.359726295
370.56,0.402737048,0.419607843,0.356793744
370.568,0.395894428,0.425490196,0.353861193
370.576,0.391006843,0.425490196,0.349951124
370.584,0.384164223,0.429411765,0.346041056
370.592,0.37829912,0.419607843,0.342130987
370.6,0.3714565,0.425490196,0.338220919
370.608,0.365591398,0.425490196,0.33431085
370.616,0.358748778,0.425490196,0.329423265
370.624,0.352883675,0.419607843,0.325513196
370.632,0.347018573,0.409803922,0.321603128
370.64,0.342130987,0.380392157,0.31769306
370.648,0.336265885,0.345098039,0.313782991
370.656,0.331378299,0.435294118,0.309872923
370.664,0.326490714,0.709803922,0.305962854
370.672,0.322580645,0.876470588,0.302052786
370.68,0.319648094,0.449019608,0.298142717
370.688,0.315738025,-0.050980392,0.293255132
370.696,0.311827957,-0.292156863,0.289345064
370.704,0.307917889,-0.333333333,0.286412512
370.712,0.30400782,-0.162745098,0.282502444
370.72,0.300097752,0.039215686,0.278592375
370.728,0.296187683,0.11372549,0.275659824
370.736,0.293255132,0.098039216,0.272727273
370.744,0.290322581,0.119607843,0.268817204
370.752,0.287390029,0.239215686,0.265884653
370.76,0.284457478,0.380392157,0.263929619
370.768,0.282502444,0.419607843,0.261974585
370.776,0.281524927,0.419607843,0.26001955
370.784,0.279569892,0.435294118,0.258064516
370.792,0.277614858,0.425490196,0.256109482
370.8,0.275659824,0.409803922,0.255131965
370.808,0.274682307,0.4,0.254154448
370.816,0.272727273,0.394117647,0.253176931
370.824,0.271749756,0.390196078,0.252199413
370.832,0.269794721,0.384313725,0.252199413
370.84,0.268817204,0.364705882,0.251221896
370.848,0.267839687,0.354901961,0.251221896
370.856,0.26686217,0.339215686,0.250244379
370.864,0.265884653,0.335294118,0.250244379
370.872,0.264907136,0.323529412,0.249266862
370.88,0.264907136,0.31372549,0.249266862
370.888,0.264907136,0.3,0.248289345
370.896,0.264907136,0.278431373,0.247311828
370.904,0.263929619,0.268627451,0.246334311
370.912,0.263929619,0.245098039,0.245356794
370.92,0.262952102,0.223529412,0.244379277
370.928,0.262952102,0.209803922,0.244379277
370.936,0.262952102,0.184313725,0.24340176
370.944,0.262952102,0.158823529,0.242424242
370.952,0.262952102,0.133333333,0.241446725
370.96,0.262952102,0.11372549,0.240469208
370.968,0.263929619,0.088235294,0.239491691
370.976,0.264907136,0.068627451,0.238514174
370.984,0.264907136,0.058823529,0.238514174
370.992,0.264907136,0.058823529,0.237536657
371,0.264907136,0.058823529,0.238514174
371.008,0.263929619,0.058823529,0.238514174
371.016,0.263929619,0.078431373,0.238514174
371.024,0.262952102,0.094117647,0.238514174
371.032,0.261974585,0.123529412,0.239491691
371.04,0.261974585,0.143137255,0.240469208
371.048,0.260997067,0.178431373,0.242424242
371.056,0.260997067,0.209803922,0.245356794
371.064,0.26001955,0.249019608,0.249266862
371.072,0.260997067,0.278431373,0.253176931
371.08,0.260997067,0.31372549,0.259042033
371.088,0.261974585,0.345098039,0.264907136
371.096,0.261974585,0.374509804,0.272727273
371.104,0.261974585,0.4,0.279569892
371.112,0.261974585,0.419607843,0.287390029
371.12,0.261974585,0.435294118,0.294232649
371.128,0.261974585,0.454901961,0.302052786
371.136,0.261974585,0.464705882,0.308895406
371.144,0.261974585,0.474509804,0.31769306
371.152,0.261974585,0.474509804,0.326490714
371.16,0.262952102,0.474509804,0.335288368
371.168,0.263929619,0.480392157,0.344086022
371.176,0.26686217,0.474509804,0.352883675
371.184,0.271749756,0.480392157,0.360703812
371.192,0.281524927,0.474509804,0.368523949
371.2,0.298142717,0.480392157,0.376344086
371.208,0.323558162,0.480392157,0.383186706
371.216,0.355816227,0.484313725,0.391006843
371.224,0.395894428,0.480392157,0.397849462
371.232,0.441837732,0.490196078,0.404692082
371.24,0.488758553,0.494117647,0.410557185
371.248,0.534701857,0.505882353,0.416422287
371.256,0.57771261,0.505882353,0.421309873
371.264,0.61485826,0.515686275,0.427174976
371.272,0.642228739,0.519607843,0.430107527
371.28,0.662756598,0.519607843,0.434017595
371.288,0.680351906,0.525490196,0.436950147
371.296,0.695014663,0.519607843,0.439882698
371.304,0.706744868,0.525490196,0.441837732
371.312,0.714565005,0.519607843,0.443792766
371.32,0.721407625,0.525490196,0.445747801
371.328,0.725317693,0.525490196,0.446725318
371.336,0.727272727,0.519607843,0.447702835
371.344,0.728250244,0.515686275,0.447702835
371.352,0.728250244,0.509803922,0.447702835
371.36,0.72629521,0.505882353,0.446725318
371.368,0.723362659,0.505882353,0.445747801
371.376,0.718475073,0.505882353,0.445747801
371.384,0.713587488,0.505882353,0.443792766
371.392,0.706744868,0.5,0.442815249
371.4,0.698924731,0.505882353,0.441837732
371.408,0.690127077,0.509803922,0.440860215
371.416,0.678396872,0.515686275,0.439882698
371.424,0.66568915,0.505882353,0.438905181
371.432,0.650048876,0.509803922,0.436950147
371.44,0.633431085,0.509803922,0.43597263
371.448,0.61485826,0.509803922,0.434017595
371.456,0.595307918,0.494117647,0.432062561
371.464,0.574780059,0.484313725,0.431085044
371.472,0.557184751,0.464705882,0.42913001
371.48,0.539589443,0.445098039,0.428152493
371.488,0.521994135,0.439215686,0.427174976
371.496,0.505376344,0.454901961,0.426197458
371.504,0.48973607,0.454901961,0.425219941
371.512,0.476050831,0.454901961,0.424242424
371.52,0.464320626,0.449019608,0.423264907
371.528,0.454545455,0.454901961,0.42228739
371.536,0.446725318,0.445098039,0.42228739
371.544,0.438905181,0.435294118,0.421309873
371.552,0.432062561,0.435294118,0.420332356
371.56,0.425219941,0.435294118,0.419354839
371.568,0.419354839,0.435294118,0.418377322
371.576,0.413489736,0.435294118,0.416422287
371.584,0.406647116,0.435294118,0.41544477
371.592,0.399804497,0.429411765,0.414467253
371.6,0.392961877,0.435294118,0.412512219
371.608,0.38514174,0.435294118,0.411534702
371.616,0.37829912,0.435294118,0.410557185
371.624,0.3714565,0.435294118,0.409579668
371.632,0.365591398,0.435294118,0.408602151
371.64,0.358748778,0.425490196,0.408602151
371.648,0.352883675,0.429411765,0.407624633
371.656,0.347018573,0.429411765,0.406647116
371.664,0.34115347,0.429411765,0.406647116
371.672,0.337243402,0.419607843,0.405669599
371.68,0.333333333,0.403921569,0.405669599
371.688,0.328445748,0.354901961,0.404692082
371.696,0.324535679,0.345098039,0.404692082
371.704,0.319648094,0.560784314,0.403714565
371.712,0.314760508,0.890196078,0.403714565
371.72,0.31085044,0.676470588,0.402737048
371.728,0.306940371,0.174509804,0.402737048
371.736,0.303030303,-0.22745098,0.401759531
371.744,0.299120235,-0.366666667,0.401759531
371.752,0.295210166,-0.288235294,0.400782014
371.76,0.292277615,-0.07254902,0.400782014
371.768,0.290322581,0.049019608,0.400782014
371.776,0.288367546,0.074509804,0.399804497
371.784,0.286412512,0.068627451,0.399804497
371.792,0.283479961,0.154901961,0.400782014
371.8,0.281524927,0.303921569,0.400782014
371.808,0.278592375,0.380392157,0.401759531
371.816,0.276637341,0.384313725,0.401759531
371.824,0.274682307,0.394117647,0.402737048
371.832,0.272727273,0.403921569,0.402737048
371.84,0.271749756,0.384313725,0.402737048
371.848,0.269794721,0.380392157,0.403714565
371.856,0.268817204,0.364705882,0.404692082
371.864,0.267839687,0.364705882,0.405669599
371.872,0.267839687,0.349019608,0.406647116
371.88,0.26686217,0.339215686,0.406647116
371.888,0.265884653,0.319607843,0.407624633
371.896,0.264907136,0.31372549,0.408602151
371.904,0.262952102,0.303921569,0.408602151
371.912,0.261974585,0.290196078,0.408602151
371.92,0.26001955,0.284313725,0.409579668
371.928,0.259042033,0.268627451,0.408602151
371.936,0.259042033,0.254901961,0.408602151
371.944,0.258064516,0.245098039,0.407624633
371.952,0.258064516,0.219607843,0.406647116
371.96,0.257086999,0.203921569,0.404692082
371.968,0.257086999,0.184313725,0.402737048
371.976,0.259042033,0.164705882,0.400782014
371.984,0.261974585,0.143137255,0.399804497
371.992,0.262952102,0.11372549,0.397849462
372,0.262952102,0.088235294,0.395894428
372.008,0.262952102,0.062745098,0.393939394
372.016,0.262952102,0.043137255,0.39198436
372.024,0.262952102,0.033333333,0.389051808
372.032,0.261974585,0.023529412,0.386119257
372.04,0.261974585,0.01372549,0.384164223
372.048,0.260997067,0.023529412,0.382209189
372.056,0.260997067,0.029411765,0.380254154
372.064,0.260997067,0.049019608,0.37829912
372.072,0.261974585,0.058823529,0.377321603
372.08,0.261974585,0.088235294,0.376344086
372.088,0.260997067,0.123529412,0.376344086
372.096,0.260997067,0.154901961,0.376344086
372.104,0.260997067,0.188235294,0.377321603
372.112,0.260997067,0.223529412,0.379276637
372.12,0.260997067,0.258823529,0.382209189
372.128,0.260997067,0.290196078,0.38514174
372.136,0.260997067,0.319607843,0.388074291
372.144,0.260997067,0.354901961,0.391006843
372.152,0.260997067,0.370588235,0.394916911
372.16,0.260997067,0.384313725,0.398826979
372.168,0.261974585,0.4,0.402737048
372.176,0.262952102,0.415686275,0.407624633
372.184,0.262952102,0.425490196,0.412512219
372.192,0.262952102,0.419607843,0.417399804
372.2,0.263929619,0.425490196,0.42228739
372.208,0.263929619,0.425490196,0.427174976
372.216,0.26686217,0.429411765,0.431085044
372.224,0.271749756,0.419607843,0.43597263
372.232,0.282502444,0.425490196,0.439882698
372.24,0.300097752,0.415686275,0.443792766
372.248,0.326490714,0.425490196,0.445747801
372.256,0.360703812,0.425490196,0.448680352
372.264,0.395894428,0.435294118,0.450635386
372.272,0.434017595,0.435294118,0.45259042
372.28,0.478983382,0.435294118,0.453567937
372.288,0.52688172,0.439215686,0.455522972
372.296,0.572825024,0.454901961,0.456500489
372.304,0.61485826,0.454901961,0.457478006
372.312,0.650048876,0.460784314,0.457478006
372.32,0.679374389,0.470588235,0.458455523
372.328,0.7028348,0.474509804,0.457478006
372.336,0.720430108,0.464705882,0.456500489
372.344,0.734115347,0.480392157,0.454545455
372.352,0.744868035,0.480392157,0.45259042
372.36,0.751710655,0.474509804,0.450635386
372.368,0.755620723,0.470588235,0.448680352
372.376,0.75659824,0.464705882,0.446725318
372.384,0.757575758,0.480392157,0.444770283
372.392,0.757575758,0.464705882,0.441837732
372.4,0.757575758,0.470588235,0.439882698
372.408,0.755620723,0.470588235,0.436950147
372.416,0.752688172,0.474509804,0.434995112
372.424,0.747800587,0.460784314,0.432062561
372.432,0.742913001,0.470588235,0.42913001
372.44,0.735092864,0.474509804,0.427174976
372.448,0.72629521,0.474509804,0.424242424
372.456,0.715542522,0.464705882,0.421309873
372.464,0.7028348,0.464705882,0.418377322
372.472,0.690127077,0.464705882,0.416422287
372.48,0.674486804,0.474509804,0.413489736
372.488,0.656891496,0.454901961,0.410557185
372.496,0.637341153,0.445098039,0.407624633
372.504,0.616813294,0.435294118,0.404692082
372.512,0.595307918,0.415686275,0.402737048
372.52,0.572825024,0.394117647,0.398826979
372.528,0.551319648,0.4,0.394916911
372.536,0.530791789,0.409803922,0.390029326
372.544,0.512218964,0.415686275,0.38514174
372.552,0.495601173,0.409803922,0.380254154
372.56,0.481915934,0.409803922,0.375366569
372.568,0.471163245,0.409803922,0.370478983
372.576,0.461388074,0.409803922,0.365591398
372.584,0.453567937,0.4,0.359726295
372.592,0.445747801,0.4,0.353861193
372.6,0.437927664,0.403921569,0.34799609
372.608,0.431085044,0.4,0.342130987
372.616,0.424242424,0.4,0.336265885
372.624,0.416422287,0.403921569,0.331378299
372.632,0.408602151,0.409803922,0.325513196
372.64,0.401759531,0.4,0.319648094
372.648,0.393939394,0.394117647,0.312805474
372.656,0.386119257,0.390196078,0.305962854
372.664,0.379276637,0.394117647,0.299120235
372.672,0.373411535,0.403921569,0.291300098
372.68,0.366568915,0.394117647,0.283479961
372.688,0.359726295,0.394117647,0.275659824
372.696,0.352883675,0.390196078,0.267839687
372.704,0.347018573,0.384313725,0.26001955
372.712,0.34115347,0.380392157,0.252199413
372.72,0.335288368,0.354901961,0.244379277
372.728,0.329423265,0.31372549,0.23655914
372.736,0.323558162,0.4,0.22971652
372.744,0.31769306,0.641176471,0.221896383
372.752,0.311827957,0.831372549,0.214076246
372.76,0.306940371,0.435294118,0.207233627
372.768,0.303030303,-0.041176471,0.19941349
372.776,0.300097752,-0.321568627,0.19257087
372.784,0.296187683,-0.366666667,0.18572825
372.792,0.293255132,-0.22745098,0.179863148
372.8,0.289345064,-0.015686275,0.173998045
372.808,0.286412512,0.052941176,0.168132942
372.816,0.283479961,0.043137255,0.163245357
372.824,0.28054741,0.068627451,0.157380254
372.832,0.278592375,0.178431373,0.151515152
372.84,0.275659824,0.319607843,0.146627566
372.848,0.27370479,0.380392157,0.142717498
372.856,0.271749756,0.370588235,0.137829912
372.864,0.269794721,0.390196078,0.133919844
372.872,0.268817204,0.384313725,0.130987292
372.88,0.267839687,0.364705882,0.128054741
372.888,0.265884653,0.358823529,0.127077224
372.896,0.263929619,0.354901961,0.12512219
372.904,0.262952102,0.339215686,0.124144673
372.912,0.261974585,0.335294118,0.123167155
372.92,0.260997067,0.319607843,0.123167155
372.928,0.26001955,0.309803922,0.123167155
372.936,0.259042033,0.290196078,0.123167155
372.944,0.258064516,0.284313725,0.124144673
372.952,0.258064516,0.274509804,0.12512219
372.96,0.257086999,0.268627451,0.126099707
372.968,0.257086999,0.249019608,0.127077224
372.976,0.258064516,0.233333333,0.128054741
372.984,0.258064516,0.219607843,0.129032258
372.992,0.258064516,0.2,0.130009775
373,0.258064516,0.178431373,0.130987292
373.008,0.258064516,0.158823529,0.131964809
373.016,0.258064516,0.139215686,0.132942326
373.024,0.258064516,0.109803922,0.132942326
373.032,0.258064516,0.094117647,0.133919844
373.04,0.258064516,0.058823529,0.134897361
373.048,0.258064516,0.052941176,0.135874878
373.056,0.258064516,0.033333333,0.136852395
373.064,0.259042033,0.017647059,0.136852395
373.072,0.26001955,0.003921569,0.137829912
373.08,0.26001955,0.003921569,0.138807429
373.088,0.26001955,0.007843137,0.138807429
373.096,0.26001955,0.017647059,0.139784946
373.104,0.26001955,0.039215686,0.139784946
373.112,0.259042033,0.058823529,0.140762463
373.12,0.259042033,0.084313725,0.142717498
373.128,0.258064516,0.123529412,0.144672532
373.136,0.257086999,0.154901961,0.146627566
373.144,0.256109482,0.194117647,0.149560117
373.152,0.255131965,0.229411765,0.153470186
373.16,0.254154448,0.264705882,0.157380254
373.168,0.254154448,0.284313725,0.161290323
373.176,0.255131965,0.319607843,0.166177908
373.184,0.256109482,0.349019608,0.172043011
373.192,0.256109482,0.380392157,0.175953079
373.2,0.257086999,0.4,0.180840665
373.208,0.257086999,0.409803922,0.18572825
373.216,0.258064516,0.425490196,0.189638319
373.224,0.258064516,0.429411765,0.194525904
373.232,0.258064516,0.435294118,0.198435973
373.24,0.259042033,0.435294118,0.203323558
373.248,0.259042033,0.435294118,0.208211144
373.256,0.261974585,0.435294118,0.211143695
373.264,0.267839687,0.439215686,0.215053763
373.272,0.276637341,0.439215686,0.217986315
373.28,0.292277615,0.449019608,0.220918866
373.288,0.315738025,0.449019608,0.221896383
373.296,0.34799609,0.454901961,0.223851417
373.304,0.388074291,0.454901961,0.224828935
373.312,0.433040078,0.470588235,0.224828935
373.32,0.481915934,0.470588235,0.223851417
373.328,0.530791789,0.474509804,0.2228739
373.336,0.575757576,0.480392157,0.220918866
373.344,0.61485826,0.490196078,0.218963832
373.352,0.649071359,0.494117647,0.217008798
373.36,0.675464321,0.494117647,0.215053763
373.368,0.694037146,0.505882353,0.212121212
373.376,0.706744868,0.505882353,0.210166178
373.384,0.717497556,0.505882353,0.206256109
373.392,0.72629521,0.505882353,0.203323558
373.4,0.73313783,0.505882353,0.198435973
373.408,0.738025415,0.505882353,0.194525904
373.416,0.740957967,0.5,0.189638319
373.424,0.742913001,0.5,0.18572825
373.432,0.743890518,0.5,0.180840665
373.44,0.742913001,0.5,0.176930596
373.448,0.740957967,0.505882353,0.172043011
373.456,0.738025415,0.509803922,0.167155425
373.464,0.73313783,0.515686275,0.161290323
373.472,0.72629521,0.505882353,0.15542522
373.48,0.718475073,0.509803922,0.149560117
373.488,0.708699902,0.515686275,0.143695015
373.496,0.697947214,0.505882353,0.137829912
373.504,0.684261975,0.490196078,0.130987292
373.512,0.669599218,0.480392157,0.126099707
373.52,0.652981427,0.464705882,0.120234604
373.528,0.634408602,0.449019608,0.116324536
373.536,0.613880743,0.445098039,0.11143695
373.544,0.593352884,0.439215686,0.106549365
373.552,0.572825024,0.454901961,0.101661779
373.56,0.551319648,0.449019608,0.095796676
373.568,0.53372434,0.449019608,0.090909091
373.576,0.518084066,0.454901961,0.086999022
373.584,0.502443793,0.445098039,0.083088954
373.592,0.488758553,0.435294118,0.080156403
373.6,0.476050831,0.439215686,0.077223851
373.608,0.465298143,0.435294118,0.0742913
373.616,0.456500489,0.439215686,0.071358749
373.624,0.448680352,0.435294118,0.069403715
373.632,0.440860215,0.435294118,0.06744868
373.64,0.434017595,0.435294118,0.066471163
373.648,0.427174976,0.439215686,0.064516129
373.656,0.420332356,0.435294118,0.064516129
373.664,0.414467253,0.439215686,0.064516129
373.672,0.408602151,0.435294118,0.065493646
373.68,0.402737048,0.435294118,0.065493646
373.688,0.395894428,0.435294118,0.06744868
373.696,0.389051808,0.435294118,0.068426197
373.704,0.382209189,0.435294118,0.070381232
373.712,0.374389052,0.445098039,0.073313783
373.72,0.367546432,0.425490196,0.077223851
373.728,0.361681329,0.415686275,0.08113392
373.736,0.35483871,0.364705882,0.085043988
373.744,0.348973607,0.419607843,0.088954057
373.752,0.343108504,0.650980392,0.092864125
373.76,0.339198436,0.925490196,0.096774194
373.768,0.335288368,0.596078431,0.102639296
373.776,0.330400782,0.062745098,0.107526882
373.784,0.326490714,-0.256862745,0.113391984
373.792,0.321603128,-0.347058824,0.119257087
373.8,0.31769306,-0.221568627,0.12512219
373.808,0.313782991,-0.005882353,0.131964809
373.816,0.309872923,0.098039216,0.137829912
373.824,0.305962854,0.109803922,0.143695015
373.832,0.303030303,0.098039216,0.1485826
373.84,0.299120235,0.203921569,0.154447703
373.848,0.296187683,0.349019608,0.159335288
373.856,0.294232649,0.409803922,0.164222874
373.864,0.292277615,0.415686275,0.170087977
373.872,0.291300098,0.425490196,0.174975562
373.88,0.289345064,0.429411765,0.179863148
373.888,0.287390029,0.409803922,0.184750733
373.896,0.286412512,0.403921569,0.190615836
373.904,0.284457478,0.384313725,0.195503421
373.912,0.282502444,0.374509804,0.200391007
373.92,0.28054741,0.364705882,0.205278592
373.928,0.278592375,0.364705882,0.211143695
373.936,0.277614858,0.345098039,0.216031281
373.944,0.275659824,0.339215686,0.220918866
373.952,0.274682307,0.319607843,0.225806452
373.96,0.274682307,0.303921569,0.230694037
373.968,0.27370479,0.290196078,0.235581623
373.976,0.27370479,0.284313725,0.240469208
373.984,0.272727273,0.268627451,0.245356794
373.992,0.272727273,0.254901961,0.249266862
374,0.271749756,0.239215686,0.254154448
374.008,0.271749756,0.21372549,0.258064516
374.016,0.270772239,0.194117647,0.261974585
374.024,0.268817204,0.168627451,0.265884653
374.032,0.265884653,0.143137255,0.269794721
374.04,0.264907136,0.119607843,0.274682307
374.048,0.262952102,0.098039216,0.278592375
374.056,0.261974585,0.074509804,0.282502444
374.064,0.261974585,0.058823529,0.286412512
374.072,0.261974585,0.043137255,0.289345064
374.08,0.261974585,0.039215686,0.293255132
374.088,0.261974585,0.039215686,0.2971652
374.096,0.261974585,0.043137255,0.302052786
374.104,0.261974585,0.052941176,0.306940371
374.112,0.260997067,0.074509804,0.311827957
374.12,0.26001955,0.088235294,0.31769306
374.128,0.259042033,0.123529412,0.322580645
374.136,0.258064516,0.149019608,0.328445748
374.144,0.257086999,0.188235294,0.33431085
374.152,0.257086999,0.219607843,0.34115347
374.16,0.257086999,0.258823529,0.347018573
374.168,0.257086999,0.290196078,0.353861193
374.176,0.257086999,0.319607843,0.359726295
374.184,0.257086999,0.349019608,0.367546432
374.192,0.257086999,0.380392157,0.374389052
374.2,0.257086999,0.403921569,0.382209189
374.208,0.257086999,0.425490196,0.390029326
374.216,0.257086999,0.439215686,0.396871945
374.224,0.257086999,0.445098039,0.404692082
374.232,0.257086999,0.454901961,0.412512219
374.24,0.257086999,0.449019608,0.419354839
374.248,0.257086999,0.454901961,0.428152493
374.256,0.257086999,0.454901961,0.436950147
374.264,0.259042033,0.460784314,0.445747801
374.272,0.263929619,0.454901961,0.454545455
374.28,0.271749756,0.460784314,0.462365591
374.288,0.286412512,0.454901961,0.471163245
374.296,0.308895406,0.464705882,0.478005865
374.304,0.339198436,0.460784314,0.484848485
374.312,0.377321603,0.470588235,0.490713587
374.32,0.421309873,0.474509804,0.497556207
374.328,0.469208211,0.480392157,0.502443793
374.336,0.516129032,0.484313725,0.507331378
374.344,0.561094819,0.490196078,0.51026393
374.352,0.600195503,0.5,0.513196481
374.36,0.629521017,0.505882353,0.515151515
374.368,0.65200391,0.509803922,0.517106549
374.376,0.671554252,0.519607843,0.517106549
374.384,0.688172043,0.525490196,0.518084066
374.392,0.700879765,0.519607843,0.518084066
374.4,0.709677419,0.515686275,0.517106549
374.408,0.717497556,0.515686275,0.516129032
374.416,0.722385142,0.519607843,0.516129032
374.424,0.725317693,0.515686275,0.514173998
374.432,0.727272727,0.515686275,0.513196481
374.44,0.727272727,0.509803922,0.51026393
374.448,0.72629521,0.505882353,0.508308895
374.456,0.725317693,0.505882353,0.505376344
374.464,0.721407625,0.505882353,0.502443793
374.472,0.715542522,0.5,0.499511241
374.48,0.709677419,0.505882353,0.497556207
374.488,0.7028348,0.5,0.495601173
374.496,0.695014663,0.509803922,0.493646139
374.504,0.684261975,0.505882353,0.490713587
374.512,0.672531769,0.505882353,0.488758553
374.52,0.657869013,0.505882353,0.486803519
374.528,0.642228739,0.509803922,0.483870968
374.536,0.624633431,0.515686275,0.481915934
374.544,0.606060606,0.494117647,0.479960899
374.552,0.585532747,0.474509804,0.478983382
374.56,0.566959922,0.454901961,0.477028348
374.568,0.549364614,0.439215686,0.476050831
374.576,0.531769306,0.435294118,0.474095797
374.584,0.513196481,0.439215686,0.47311828
374.592,0.49657869,0.449019608,0.472140762
374.6,0.481915934,0.449019608,0.471163245
374.608,0.469208211,0.445098039,0.470185728
374.616,0.458455523,0.449019608,0.469208211
374.624,0.448680352,0.439215686,0.468230694
374.632,0.439882698,0.425490196,0.468230694
374.64,0.433040078,0.419607843,0.467253177
374.648,0.425219941,0.429411765,0.46627566
374.656,0.418377322,0.429411765,0.465298143
374.664,0.412512219,0.435294118,0.464320626
374.672,0.406647116,0.425490196,0.463343109
374.68,0.399804497,0.425490196,0.462365591
374.688,0.39198436,0.419607843,0.460410557
374.696,0.384164223,0.429411765,0.45943304
374.704,0.376344086,0.425490196,0.457478006
374.712,0.369501466,0.429411765,0.456500489
374.72,0.362658847,0.415686275,0.455522972
374.728,0.355816227,0.419607843,0.454545455
374.736,0.349951124,0.415686275,0.453567937
374.744,0.344086022,0.415686275,0.45259042
374.752,0.338220919,0.415686275,0.451612903
374.76,0.333333333,0.4,0.451612903
374.768,0.329423265,0.380392157,0.451612903
374.776,0.324535679,0.335294118,0.451612903
374.784,0.318670577,0.394117647,0.45259042
374.792,0.313782991,0.625490196,0.45259042
374.8,0.308895406,0.890196078,0.45259042
374.808,0.30400782,0.564705882,0.45259042
374.816,0.299120235,0.039215686,0.45259042
374.824,0.295210166,-0.292156863,0.451612903
374.832,0.291300098,-0.362745098,0.451612903
374.84,0.287390029,-0.243137255,0.449657869
374.848,0.283479961,-0.02745098,0.448680352
374.856,0.28054741,0.062745098,0.447702835
374.864,0.278592375,0.078431373,0.446725318
374.872,0.276637341,0.062745098,0.445747801
374.88,0.274682307,0.2,0.445747801
374.888,0.272727273,0.345098039,0.444770283
374.896,0.269794721,0.390196078,0.443792766
374.904,0.267839687,0.390196078,0.442815249
374.912,0.26686217,0.409803922,0.442815249
374.92,0.264907136,0.415686275,0.442815249
374.928,0.262952102,0.384313725,0.442815249
374.936,0.261974585,0.374509804,0.442815249
374.944,0.260997067,0.364705882,0.442815249
374.952,0.259042033,0.358823529,0.443792766
374.96,0.259042033,0.349019608,0.444770283
374.968,0.259042033,0.345098039,0.445747801
374.976,0.258064516,0.335294118,0.446725318
374.984,0.257086999,0.31372549,0.447702835
374.992,0.257086999,0.309803922,0.448680352
375,0.256109482,0.290196078,0.448680352
375.008,0.255131965,0.274509804,0.449657869
375.016,0.255131965,0.258823529,0.449657869
375.024,0.255131965,0.249019608,0.449657869
375.032,0.254154448,0.239215686,0.449657869
375.04,0.254154448,0.21372549,0.449657869
375.048,0.253176931,0.194117647,0.449657869
375.056,0.253176931,0.174509804,0.449657869
375.064,0.253176931,0.154901961,0.449657869
375.072,0.254154448,0.129411765,0.449657869
375.08,0.254154448,0.098039216,0.449657869
375.088,0.254154448,0.074509804,0.449657869
375.096,0.255131965,0.058823529,0.448680352
375.104,0.255131965,0.029411765,0.448680352
375.112,0.256109482,0.017647059,0.448680352
375.12,0.256109482,0.007843137,0.448680352
375.128,0.256109482,0.007843137,0.447702835
375.136,0.257086999,0.01372549,0.447702835
375.144,0.257086999,0.033333333,0.447702835
375.152,0.256109482,0.039215686,0.447702835
375.16,0.256109482,0.062745098,0.446725318
375.168,0.257086999,0.084313725,0.446725318
375.176,0.257086999,0.123529412,0.447702835
375.184,0.256109482,0.154901961,0.448680352
375.192,0.256109482,0.194117647,0.449657869
375.2,0.255131965,0.223529412,0.451612903
375.208,0.255131965,0.258823529,0.453567937
375.216,0.255131965,0.294117647,0.456500489
375.224,0.255131965,0.319607843,0.45943304
375.232,0.255131965,0.354901961,0.462365591
375.24,0.256109482,0.370588235,0.465298143
375.248,0.256109482,0.384313725,0.469208211
375.256,0.257086999,0.4,0.474095797
375.264,0.258064516,0.419607843,0.478005865
375.272,0.26001955,0.419607843,0.482893451
375.28,0.26001955,0.425490196,0.486803519
375.288,0.26001955,0.429411765,0.491691105
375.296,0.260997067,0.429411765,0.495601173
375.304,0.263929619,0.419607843,0.499511241
375.312,0.268817204,0.425490196,0.50342131
375.32,0.279569892,0.415686275,0.506353861
375.328,0.298142717,0.419607843,0.51026393
375.336,0.323558162,0.409803922,0.512218964
375.344,0.357771261,0.429411765,0.515151515
375.352,0.398826979,0.425490196,0.516129032
375.36,0.437927664,0.435294118,0.518084066
375.368,0.476050831,0.435294118,0.520039101
375.376,0.520039101,0.445098039,0.521016618
375.384,0.56402737,0.445098039,0.521994135
375.392,0.603128055,0.454901961,0.522971652
375.4,0.638318671,0.460784314,0.522971652
375.408,0.666666667,0.464705882,0.523949169
375.416,0.68914956,0.470588235,0.523949169
375.424,0.705767351,0.480392157,0.523949169
375.432,0.718475073,0.474509804,0.522971652
375.44,0.727272727,0.470588235,0.522971652
375.448,0.737047898,0.480392157,0.521994135
375.456,0.73998045,0.474509804,0.521016618
375.464,0.740957967,0.474509804,0.519061584
375.472,0.740957967,0.464705882,0.517106549
375.48,0.740957967,0.470588235,0.515151515
375.488,0.739002933,0.470588235,0.514173998
375.496,0.730205279,0.470588235,0.511241447
375.504,0.723362659,0.464705882,0.509286413
375.512,0.715542522,0.470588235,0.507331378
375.52,0.698924731,0.474509804,0.505376344
375.528,0.686217009,0.480392157,0.50342131
375.536,0.671554252,0.464705882,0.501466276
375.544,0.656891496,0.470588235,0.499511241
375.552,0.640273705,0.480392157,0.498533724
375.56,0.62170088,0.484313725,0.49657869
375.568,0.602150538,0.474509804,0.495601173
375.576,0.580645161,0.454901961,0.494623656
375.584,0.549364614,0.435294118,0.493646139
375.592,0.529814272,0.419607843,0.492668622
375.6,0.51026393,0.409803922,0.491691105
375.608,0.485826002,0.415686275,0.490713587
375.616,0.472140762,0.419607843,0.48973607
375.624,0.460410557,0.429411765,0.487781036
375.632,0.451612903,0.425490196,0.486803519
375.64,0.443792766,0.419607843,0.484848485
375.648,0.43597263,0.425490196,0.483870968
375.656,0.428152493,0.409803922,0.481915934
375.664,0.420332356,0.415686275,0.479960899
375.672,0.412512219,0.403921569,0.477028348
375.68,0.405669599,0.409803922,0.475073314
375.688,0.397849462,0.409803922,0.47311828
375.696,0.390029326,0.415686275,0.470185728
375.704,0.382209189,0.403921569,0.468230694
375.712,0.374389052,0.409803922,0.465298143
375.72,0.366568915,0.403921569,0.462365591
375.728,0.360703812,0.409803922,0.45943304
375.736,0.35483871,0.409803922,0.455522972
375.744,0.348973607,0.409803922,0.451612903
375.752,0.343108504,0.394117647,0.448680352
375.76,0.337243402,0.409803922,0.444770283
375.768,0.331378299,0.4,0.441837732
375.776,0.325513196,0.409803922,0.437927664
375.784,0.320625611,0.4,0.434017595
375.792,0.315738025,0.384313725,0.42913001
375.8,0.31085044,0.345098039,0.424242424
375.808,0.305962854,0.319607843,0.419354839
375.816,0.302052786,0.490196078,0.414467253
375.824,0.298142717,0.805882353,0.410557185
375.832,0.295210166,0.866666667,0.405669599
375.84,0.292277615,0.245098039,0.401759531
375.848,0.288367546,-0.182352941,0.396871945
375.856,0.285434995,-0.352941176,0.39198436
375.864,0.281524927,-0.307843137,0.386119257
375.872,0.278592375,-0.105882353,0.380254154
375.88,0.276637341,0.039215686,0.375366569
375.888,0.27370479,0.078431373,0.369501466
375.896,0.271749756,0.062745098,0.364613881
375.904,0.269794721,0.109803922,0.358748778
375.912,0.26686217,0.249019608,0.353861193
375.92,0.264907136,0.358823529,0.349951124
375.928,0.263929619,0.384313725,0.345063539
375.936,0.262952102,0.384313725,0.34115347
375.944,0.260997067,0.394117647,0.337243402
375.952,0.26001955,0.374509804,0.333333333
375.96,0.259042033,0.380392157,0.329423265
375.968,0.258064516,0.354901961,0.326490714
375.976,0.257086999,0.345098039,0.322580645
375.984,0.256109482,0.339215686,0.319648094
375.992,0.256109482,0.329411765,0.316715543
376,0.256109482,0.31372549,0.313782991
376.008,0.255131965,0.3,0.31085044
376.016,0.255131965,0.290196078,0.308895406
376.024,0.255131965,0.284313725,0.306940371
376.032,0.255131965,0.268627451,0.304985337
376.04,0.255131965,0.264705882,0.303030303
376.048,0.254154448,0.245098039,0.302052786
376.056,0.253176931,0.239215686,0.300097752
376.064,0.253176931,0.21372549,0.299120235
376.072,0.253176931,0.2,0.2971652
376.08,0.253176931,0.184313725,0.296187683
376.088,0.253176931,0.158823529,0.294232649
376.096,0.254154448,0.133333333,0.292277615
376.104,0.254154448,0.103921569,0.290322581
376.112,0.254154448,0.084313725,0.288367546
376.12,0.254154448,0.058823529,0.286412512
376.128,0.254154448,0.039215686,0.284457478
376.136,0.255131965,0.023529412,0.282502444
376.144,0.255131965,0.007843137,0.281524927
376.152,0.254154448,0.007843137,0.279569892
376.16,0.254154448,0.01372549,0.278592375
376.168,0.254154448,0.023529412,0.277614858
376.176,0.253176931,0.033333333,0.276637341
376.184,0.253176931,0.052941176,0.275659824
376.192,0.252199413,0.084313725,0.274682307
376.2,0.251221896,0.109803922,0.275659824
376.208,0.251221896,0.143137255,0.275659824
376.216,0.251221896,0.178431373,0.277614858
376.224,0.251221896,0.223529412,0.278592375
376.232,0.253176931,0.254901961,0.281524927
376.24,0.253176931,0.290196078,0.283479961
376.248,0.254154448,0.323529412,0.286412512
376.256,0.254154448,0.354901961,0.289345064
376.264,0.254154448,0.380392157,0.292277615
376.272,0.254154448,0.390196078,0.295210166
376.28,0.254154448,0.409803922,0.299120235
376.288,0.254154448,0.429411765,0.302052786
376.296,0.254154448,0.439215686,0.304985337
376.304,0.257086999,0.445098039,0.307917889
376.312,0.263929619,0.454901961,0.309872923
376.32,0.275659824,0.454901961,0.311827957
376.328,0.292277615,0.449019608,0.312805474
376.336,0.313782991,0.449019608,0.314760508
376.344,0.345063539,0.445098039,0.315738025
376.352,0.38514174,0.449019608,0.316715543
376.36,0.431085044,0.454901961,0.316715543
376.368,0.479960899,0.460784314,0.316715543
376.376,0.527859238,0.470588235,0.315738025
376.384,0.572825024,0.464705882,0.315738025
376.392,0.611925709,0.474509804,0.313782991
376.4,0.644183773,0.480392157,0.311827957
376.408,0.670576735,0.480392157,0.309872923
376.416,0.690127077,0.490196078,0.306940371
376.424,0.7028348,0.490196078,0.30400782
376.432,0.711632454,0.5,0.300097752
376.44,0.718475073,0.5,0.295210166
376.448,0.724340176,0.505882353,0.291300098
376.456,0.728250244,0.505882353,0.286412512
376.464,0.731182796,0.509803922,0.281524927
376.472,0.732160313,0.505882353,0.276637341
376.48,0.732160313,0.505882353,0.272727273
376.488,0.731182796,0.505882353,0.267839687
376.496,0.729227761,0.5,0.262952102
376.504,0.725317693,0.5,0.258064516
376.512,0.720430108,0.494117647,0.254154448
376.52,0.714565005,0.494117647,0.250244379
376.528,0.706744868,0.505882353,0.246334311
376.536,0.696969697,0.505882353,0.242424242
376.544,0.686217009,0.515686275,0.239491691
376.552,0.672531769,0.505882353,0.23655914
376.56,0.657869013,0.505882353,0.233626588
376.568,0.641251222,0.515686275,0.231671554
376.576,0.622678397,0.519607843,0.230694037
376.584,0.603128055,0.5,0.228739003
376.592,0.582600196,0.494117647,0.227761486
376.6,0.562072336,0.474509804,0.226783969
376.608,0.541544477,0.454901961,0.225806452
376.616,0.521994135,0.449019608,0.225806452
376.624,0.504398827,0.449019608,0.224828935
376.632,0.490713587,0.454901961,0.224828935
376.64,0.477028348,0.454901961,0.224828935
376.648,0.464320626,0.454901961,0.223851417
376.656,0.454545455,0.454901961,0.223851417
376.664,0.445747801,0.460784314,0.223851417
376.672,0.438905181,0.449019608,0.223851417
376.68,0.432062561,0.449019608,0.223851417
376.688,0.426197458,0.439215686,0.224828935
376.696,0.419354839,0.445098039,0.224828935
376.704,0.413489736,0.435294118,0.224828935
376.712,0.406647116,0.445098039,0.224828935
376.72,0.398826979,0.449019608,0.225806452
376.728,0.392961877,0.449019608,0.225806452
376.736,0.387096774,0.439215686,0.225806452
376.744,0.380254154,0.445098039,0.225806452
376.752,0.373411535,0.435294118,0.226783969
376.76,0.366568915,0.435294118,0.226783969
376.768,0.360703812,0.439215686,0.226783969
376.776,0.353861193,0.435294118,0.226783969
376.784,0.34799609,0.439215686,0.227761486
376.792,0.343108504,0.435294118,0.227761486
376.8,0.337243402,0.435294118,0.227761486
376.808,0.331378299,0.415686275,0.228739003
376.816,0.326490714,0.374509804,0.22971652
376.824,0.322580645,0.354901961,0.230694037
376.832,0.318670577,0.509803922,0.232649071
376.84,0.313782991,0.850980392,0.233626588
376.848,0.309872923,0.911764706,0.235581623
376.856,0.305962854,0.294117647,0.237536657
376.864,0.303030303,-0.162745098,0.239491691
376.872,0.299120235,-0.347058824,0.240469208
376.88,0.296187683,-0.301960784,0.241446725
376.888,0.293255132,-0.096078431,0.242424242
376.896,0.290322581,0.049019608,0.24340176
376.904,0.287390029,0.094117647,0.245356794
376.912,0.284457478,0.084313725,0.246334311
376.92,0.282502444,0.133333333,0.248289345
376.928,0.28054741,0.290196078,0.249266862
376.936,0.279569892,0.390196078,0.250244379
376.944,0.278592375,0.394117647,0.252199413
376.952,0.276637341,0.409803922,0.253176931
376.96,0.274682307,0.425490196,0.254154448
376.968,0.27370479,0.409803922,0.256109482
376.976,0.271749756,0.394117647,0.258064516
376.984,0.270772239,0.384313725,0.26001955
376.992,0.269794721,0.374509804,0.262952102
377,0.268817204,0.364705882,0.264907136
377.008,0.26686217,0.349019608,0.267839687
377.016,0.265884653,0.339215686,0.269794721
377.024,0.265884653,0.329411765,0.272727273
377.032,0.265884653,0.31372549,0.274682307
377.04,0.264907136,0.3,0.277614858
377.048,0.263929619,0.278431373,0.279569892
377.056,0.263929619,0.268627451,0.281524927
377.064,0.262952102,0.258823529,0.283479961
377.072,0.262952102,0.245098039,0.285434995
377.08,0.261974585,0.229411765,0.287390029
377.088,0.261974585,0.209803922,0.288367546
377.096,0.261974585,0.194117647,0.290322581
377.104,0.261974585,0.168627451,0.291300098
377.112,0.261974585,0.143137255,0.293255132
377.12,0.260997067,0.119607843,0.295210166
377.128,0.261974585,0.098039216,0.296187683
377.136,0.261974585,0.074509804,0.298142717
377.144,0.262952102,0.058823529,0.299120235
377.152,0.261974585,0.039215686,0.300097752
377.16,0.261974585,0.033333333,0.301075269
377.168,0.260997067,0.023529412,0.302052786
377.176,0.26001955,0.033333333,0.30400782
377.184,0.259042033,0.039215686,0.304985337
377.192,0.258064516,0.049019608,0.306940371
377.2,0.257086999,0.068627451,0.308895406
377.208,0.256109482,0.094117647,0.31085044
377.216,0.255131965,0.123529412,0.312805474
377.224,0.254154448,0.158823529,0.315738025
377.232,0.255131965,0.194117647,0.318670577
377.24,0.254154448,0.229411765,0.322580645
377.248,0.254154448,0.264705882,0.326490714
377.256,0.254154448,0.3,0.330400782
377.264,0.254154448,0.339215686,0.335288368
377.272,0.254154448,0.364705882,0.339198436
377.28,0.254154448,0.384313725,0.344086022
377.288,0.254154448,0.4,0.348973607
377.296,0.254154448,0.425490196,0.353861193
377.304,0.254154448,0.435294118,0.358748778
377.312,0.255131965,0.445098039,0.364613881
377.32,0.258064516,0.445098039,0.370478983
377.328,0.263929619,0.454901961,0.376344086
377.336,0.27370479,0.454901961,0.382209189
377.344,0.291300098,0.454901961,0.388074291
377.352,0.31769306,0.449019608,0.392961877
377.36,0.351906158,0.454901961,0.397849462
377.368,0.39198436,0.454901961,0.400782014
377.376,0.437927664,0.454901961,0.404692082
377.384,0.486803519,0.454901961,0.407624633
377.392,0.53372434,0.454901961,0.410557185
377.4,0.57771261,0.464705882,0.413489736
377.408,0.61485826,0.474509804,0.416422287
377.416,0.647116325,0.480392157,0.418377322
377.424,0.669599218,0.484313725,0.420332356
377.432,0.685239492,0.494117647,0.42228739
377.44,0.698924731,0.5,0.423264907
377.448,0.709677419,0.505882353,0.424242424
377.456,0.717497556,0.509803922,0.424242424
377.464,0.724340176,0.509803922,0.424242424
377.472,0.728250244,0.505882353,0.423264907
377.48,0.731182796,0.515686275,0.421309873
377.488,0.73313783,0.505882353,0.419354839
377.496,0.734115347,0.509803922,0.416422287
377.504,0.73313783,0.505882353,0.413489736
377.512,0.731182796,0.505882353,0.409579668
377.52,0.728250244,0.505882353,0.406647116
377.528,0.722385142,0.505882353,0.403714565
377.536,0.716520039,0.505882353,0.400782014
377.544,0.709677419,0.5,0.396871945
377.552,0.700879765,0.494117647,0.392961877
377.56,0.690127077,0.5,0.389051808
377.568,0.677419355,0.484313725,0.38514174
377.576,0.662756598,0.5,0.382209189
377.584,0.646138807,0.505882353,0.37829912
377.592,0.627565982,0.5,0.374389052
377.6,0.60801564,0.490196078,0.3714565
377.608,0.586510264,0.5,0.368523949
377.616,0.565982405,0.505882353,0.366568915
377.624,0.54740958,0.490196078,0.363636364
377.632,0.530791789,0.474509804,0.361681329
377.64,0.513196481,0.460784314,0.359726295
377.648,0.497556207,0.439215686,0.357771261
377.656,0.482893451,0.429411765,0.35483871
377.664,0.470185728,0.429411765,0.352883675
377.672,0.45943304,0.435294118,0.350928641
377.68,0.450635386,0.449019608,0.348973607
377.688,0.442815249,0.435294118,0.34799609
377.696,0.434995112,0.435294118,0.346041056
377.704,0.428152493,0.435294118,0.344086022
377.712,0.421309873,0.425490196,0.343108504
377.72,0.414467253,0.415686275,0.34115347
377.728,0.408602151,0.419607843,0.339198436
377.736,0.401759531,0.419607843,0.336265885
377.744,0.393939394,0.419607843,0.33431085
377.752,0.386119257,0.415686275,0.332355816
377.76,0.379276637,0.419607843,0.330400782
377.768,0.3714565,0.415686275,0.328445748
377.776,0.364613881,0.419607843,0.326490714
377.784,0.357771261,0.415686275,0.325513196
377.792,0.351906158,0.415686275,0.323558162
377.8,0.345063539,0.415686275,0.322580645
377.808,0.339198436,0.409803922,0.320625611
377.816,0.33431085,0.409803922,0.318670577
377.824,0.329423265,0.415686275,0.316715543
377.832,0.325513196,0.409803922,0.315738025
377.84,0.320625611,0.409803922,0.313782991
377.848,0.315738025,0.4,0.312805474
377.856,0.31085044,0.380392157,0.311827957
377.864,0.305962854,0.335294118,0.311827957
377.872,0.302052786,0.415686275,0.31085044
377.88,0.298142717,0.670588235,0.31085044
377.888,0.294232649,0.860784314,0.311827957
377.896,0.290322581,0.490196078,0.311827957
377.904,0.287390029,-0.041176471,0.311827957
377.912,0.284457478,-0.32745098,0.311827957
377.92,0.283479961,-0.378431373,0.311827957
377.928,0.281524927,-0.211764706,0.312805474
377.936,0.28054741,-0.021568627,0.313782991
377.944,0.278592375,0.052941176,0.314760508
377.952,0.276637341,0.043137255,0.315738025
377.96,0.27370479,0.074509804,0.315738025
377.968,0.272727273,0.2,0.316715543
377.976,0.270772239,0.345098039,0.31769306
377.984,0.269794721,0.370588235,0.31769306
377.992,0.268817204,0.374509804,0.31769306
378,0.26686217,0.384313725,0.318670577
378.008,0.265884653,0.384313725,0.318670577
378.016,0.264907136,0.364705882,0.318670577
378.024,0.264907136,0.364705882,0.319648094
378.032,0.264907136,0.349019608,0.320625611
378.04,0.263929619,0.339215686,0.320625611
378.048,0.262952102,0.329411765,0.321603128
378.056,0.262952102,0.323529412,0.322580645
378.064,0.262952102,0.303921569,0.322580645
378.072,0.261974585,0.290196078,0.321603128
378.08,0.261974585,0.278431373,0.321603128
378.088,0.260997067,0.268627451,0.320625611
378.096,0.260997067,0.254901961,0.319648094
378.104,0.26001955,0.245098039,0.318670577
378.112,0.26001955,0.223529412,0.316715543
378.12,0.26001955,0.209803922,0.314760508
378.128,0.26001955,0.188235294,0.312805474
378.136,0.260997067,0.168627451,0.309872923
378.144,0.260997067,0.149019608,0.306940371
378.152,0.260997067,0.129411765,0.30400782
378.16,0.260997067,0.098039216,0.301075269
378.168,0.260997067,0.074509804,0.298142717
378.176,0.260997067,0.058823529,0.296187683
378.184,0.260997067,0.029411765,0.292277615
378.192,0.260997067,0.007843137,0.289345064
378.2,0.260997067,-0.011764706,0.285434995
378.208,0.260997067,-0.015686275,0.282502444
378.216,0.26001955,-0.015686275,0.279569892
378.224,0.26001955,-0.001960784,0.276637341
378.232,0.260997067,0.01372549,0.274682307
378.24,0.26001955,0.033333333,0.272727273
378.248,0.26001955,0.049019608,0.271749756
378.256,0.259042033,0.074509804,0.270772239
378.264,0.259042033,0.103921569,0.271749756
378.272,0.258064516,0.143137255,0.272727273
378.28,0.258064516,0.178431373,0.275659824
378.288,0.258064516,0.21372549,0.278592375
378.296,0.258064516,0.254901961,0.283479961
378.304,0.258064516,0.284313725,0.287390029
378.312,0.259042033,0.31372549,0.292277615
378.32,0.26001955,0.339215686,0.2971652
378.328,0.260997067,0.364705882,0.303030303
378.336,0.261974585,0.384313725,0.308895406
378.344,0.261974585,0.4,0.316715543
378.352,0.262952102,0.409803922,0.324535679
378.36,0.265884653,0.415686275,0.333333333
378.368,0.270772239,0.409803922,0.343108504
378.376,0.281524927,0.415686275,0.350928641
378.384,0.299120235,0.409803922,0.359726295
378.392,0.324535679,0.409803922,0.366568915
378.4,0.358748778,0.409803922,0.374389052
378.408,0.400782014,0.415686275,0.380254154
378.416,0.448680352,0.415686275,0.387096774
378.424,0.491691105,0.419607843,0.392961877
378.432,0.531769306,0.425490196,0.398826979
378.44,0.575757576,0.429411765,0.402737048
378.448,0.616813294,0.435294118,0.406647116
378.456,0.652981427,0.445098039,0.407624633
378.464,0.683284457,0.449019608,0.409579668
378.472,0.707722385,0.454901961,0.408602151
378.48,0.72629521,0.464705882,0.408602151
378.488,0.73998045,0.474509804,0.407624633
378.496,0.750733138,0.480392157,0.405669599
378.504,0.758553275,0.474509804,0.400782014
378.512,0.76344086,0.480392157,0.395894428
378.52,0.765395894,0.480392157,0.388074291
378.528,0.764418377,0.480392157,0.380254154
378.536,0.764418377,0.480392157,0.3714565
378.544,0.76344086,0.480392157,0.362658847
378.552,0.762463343,0.480392157,0.353861193
378.56,0.760508309,0.484313725,0.344086022
378.568,0.75659824,0.480392157,0.333333333
378.576,0.750733138,0.480392157,0.322580645
378.584,0.743890518,0.470588235,0.31085044
378.592,0.734115347,0.464705882,0.298142717
378.6,0.723362659,0.474509804,0.285434995
378.608,0.709677419,0.470588235,0.272727273
378.616,0.695014663,0.480392157,0.26001955
378.624,0.678396872,0.470588235,0.248289345
378.632,0.661779081,0.464705882,0.237536657
378.64,0.642228739,0.480392157,0.226783969
378.648,0.62170088,0.490196078,0.217986315
378.656,0.599217986,0.464705882,0.209188661
378.664,0.576735093,0.460784314,0.201368524
378.672,0.554252199,0.449019608,0.194525904
378.68,0.532746823,0.435294118,0.189638319
378.688,0.514173998,0.419607843,0.183773216
378.696,0.49657869,0.415686275,0.179863148
378.704,0.481915934,0.429411765,0.175953079
378.712,0.469208211,0.425490196,0.173998045
378.72,0.45943304,0.419607843,0.171065494
378.728,0.451612903,0.415686275,0.170087977
378.736,0.443792766,0.425490196,0.169110459
378.744,0.436950147,0.415686275,0.169110459
378.752,0.430107527,0.409803922,0.169110459
378.76,0.423264907,0.419607843,0.170087977
378.768,0.41544477,0.409803922,0.171065494
378.776,0.407624633,0.409803922,0.172043011
378.784,0.399804497,0.403921569,0.173998045
378.792,0.39198436,0.419607843,0.174975562
378.8,0.384164223,0.409803922,0.175953079
378.808,0.376344086,0.409803922,0.177908113
378.816,0.369501466,0.403921569,0.17888563
378.824,0.363636364,0.403921569,0.17888563
378.832,0.358748778,0.409803922,0.179863148
378.84,0.352883675,0.4,0.179863148
378.848,0.346041056,0.4,0.180840665
378.856,0.340175953,0.4,0.179863148
378.864,0.33431085,0.4,0.179863148
378.872,0.329423265,0.394117647,0.179863148
378.88,0.323558162,0.4,0.179863148
378.888,0.318670577,0.364705882,0.177908113
378.896,0.313782991,0.319607843,0.176930596
378.904,0.308895406,0.403921569,0.175953079
378.912,0.30400782,0.664705882,0.173998045
378.92,0.301075269,0.866666667,0.172043011
378.928,0.298142717,0.454901961,0.170087977
378.936,0.295210166,-0.060784314,0.168132942
378.944,0.292277615,-0.307843137,0.165200391
378.952,0.289345064,-0.37254902,0.163245357
378.96,0.286412512,-0.237254902,0.161290323
378.968,0.283479961,-0.031372549,0.160312805
378.976,0.28054741,0.074509804,0.158357771
378.984,0.278592375,0.078431373,0.156402737
378.992,0.276637341,0.058823529,0.154447703
379,0.27370479,0.174509804,0.152492669
379.008,0.271749756,0.323529412,0.150537634
379.016,0.269794721,0.384313725,0.1485826
379.024,0.268817204,0.380392157,0.147605083
379.032,0.267839687,0.394117647,0.146627566
379.04,0.26686217,0.403921569,0.146627566
379.048,0.265884653,0.384313725,0.145650049
379.056,0.264907136,0.364705882,0.145650049
379.064,0.263929619,0.358823529,0.146627566
379.072,0.262952102,0.349019608,0.146627566
379.08,0.261974585,0.339215686,0.147605083
379.088,0.260997067,0.335294118,0.147605083
379.096,0.26001955,0.31372549,0.1485826
379.104,0.259042033,0.3,0.149560117
379.112,0.259042033,0.290196078,0.150537634
379.12,0.259042033,0.278431373,0.151515152
379.128,0.26001955,0.268627451,0.152492669
379.136,0.26001955,0.264705882,0.154447703
379.144,0.26001955,0.254901961,0.154447703
379.152,0.259042033,0.229411765,0.15542522
379.16,0.259042033,0.219607843,0.15542522
379.168,0.258064516,0.194117647,0.156402737
379.176,0.258064516,0.174509804,0.156402737
379.184,0.258064516,0.143137255,0.157380254
379.192,0.258064516,0.129411765,0.157380254
379.2,0.258064516,0.103921569,0.158357771
379.208,0.258064516,0.088235294,0.158357771
379.216,0.258064516,0.068627451,0.158357771
379.224,0.259042033,0.049019608,0.157380254
379.232,0.259042033,0.033333333,0.156402737
379.24,0.258064516,0.023529412,0.156402737
379.248,0.258064516,0.01372549,0.15542522
379.256,0.257086999,0.023529412,0.15542522
379.264,0.256109482,0.039215686,0.156402737
379.272,0.255131965,0.062745098,0.157380254
379.28,0.254154448,0.084313725,0.158357771
379.288,0.253176931,0.11372549,0.159335288
379.296,0.253176931,0.149019608,0.161290323
379.304,0.253176931,0.184313725,0.164222874
379.312,0.253176931,0.219607843,0.167155425
379.32,0.253176931,0.254901961,0.170087977
379.328,0.254154448,0.294117647,0.173020528
379.336,0.254154448,0.323529412,0.176930596
379.344,0.255131965,0.354901961,0.180840665
379.352,0.255131965,0.380392157,0.184750733
379.36,0.256109482,0.409803922,0.189638319
379.368,0.256109482,0.425490196,0.193548387
379.376,0.256109482,0.445098039,0.198435973
379.384,0.256109482,0.454901961,0.203323558
379.392,0.257086999,0.460784314,0.207233627
379.4,0.260997067,0.464705882,0.212121212
379.408,0.269794721,0.460784314,0.217008798
379.416,0.282502444,0.460784314,0.220918866
379.424,0.300097752,0.464705882,0.225806452
379.432,0.326490714,0.470588235,0.22971652
379.44,0.362658847,0.460784314,0.233626588
379.448,0.405669599,0.460784314,0.235581623
379.456,0.454545455,0.464705882,0.238514174
379.464,0.504398827,0.464705882,0.240469208
379.472,0.553274682,0.470588235,0.242424242
379.48,0.597262952,0.474509804,0.244379277
379.488,0.634408602,0.480392157,0.246334311
379.496,0.666666667,0.480392157,0.247311828
379.504,0.691104594,0.490196078,0.248289345
379.512,0.710654936,0.505882353,0.249266862
379.52,0.722385142,0.505882353,0.250244379
379.528,0.730205279,0.509803922,0.249266862
379.536,0.737047898,0.505882353,0.249266862
379.544,0.741935484,0.505882353,0.247311828
379.552,0.745845552,0.509803922,0.246334311
379.56,0.748778104,0.519607843,0.244379277
379.568,0.749755621,0.509803922,0.24340176
379.576,0.749755621,0.519607843,0.241446725
379.584,0.748778104,0.509803922,0.239491691
379.592,0.745845552,0.515686275,0.238514174
379.6,0.741935484,0.505882353,0.23655914
379.608,0.737047898,0.509803922,0.235581623
379.616,0.730205279,0.505882353,0.235581623
379.624,0.721407625,0.515686275,0.234604106
379.632,0.711632454,0.525490196,0.233626588
379.64,0.699902248,0.519607843,0.233626588
379.648,0.686217009,0.509803922,0.233626588
379.656,0.669599218,0.519607843,0.233626588
379.664,0.65200391,0.525490196,0.233626588
379.672,0.632453568,0.515686275,0.234604106
379.68,0.611925709,0.505882353,0.235581623
379.688,0.589442815,0.490196078,0.23655914
379.696,0.566959922,0.474509804,0.23655914
379.704,0.544477028,0.454901961,0.237536657
379.712,0.523949169,0.454901961,0.238514174
379.72,0.506353861,0.454901961,0.239491691
379.728,0.491691105,0.464705882,0.241446725
379.736,0.478005865,0.454901961,0.24340176
379.744,0.46627566,0.454901961,0.245356794
379.752,0.456500489,0.464705882,0.247311828
379.76,0.447702835,0.460784314,0.249266862
379.768,0.440860215,0.449019608,0.250244379
379.776,0.434017595,0.449019608,0.252199413
379.784,0.428152493,0.445098039,0.253176931
379.792,0.421309873,0.449019608,0.254154448
379.8,0.414467253,0.445098039,0.255131965
379.808,0.407624633,0.445098039,0.255131965
379.816,0.401759531,0.449019608,0.256109482
379.824,0.395894428,0.449019608,0.256109482
379.832,0.389051808,0.445098039,0.257086999
379.84,0.382209189,0.439215686,0.257086999
379.848,0.375366569,0.445098039,0.258064516
379.856,0.368523949,0.435294118,0.258064516
379.864,0.361681329,0.439215686,0.258064516
379.872,0.355816227,0.435294118,0.258064516
379.88,0.348973607,0.439215686,0.259042033
379.888,0.343108504,0.435294118,0.26001955
379.896,0.337243402,0.425490196,0.260997067
379.904,0.331378299,0.403921569,0.261974585
379.912,0.326490714,0.358823529,0.262952102
379.92,0.322580645,0.345098039,0.264907136
379.928,0.318670577,0.584313725,0.265884653
379.936,0.314760508,0.921568627,0.267839687
379.944,0.309872923,0.670588235,0.268817204
379.952,0.305962854,0.133333333,0.270772239
379.96,0.302052786,-0.237254902,0.271749756
379.968,0.299120235,-0.366666667,0.272727273
379.976,0.295210166,-0.27254902,0.272727273
379.984,0.292277615,-0.060784314,0.27370479
379.992,0.289345064,0.062745098,0.274682307
380,0.286412512,0.078431373,0.274682307
380.008,0.283479961,0.074509804,0.275659824
380.016,0.282502444,0.158823529,0.276637341
380.024,0.281524927,0.309803922,0.277614858
380.032,0.279569892,0.384313725,0.279569892
380.04,0.277614858,0.390196078,0.281524927
380.048,0.275659824,0.403921569,0.283479961
380.056,0.27370479,0.409803922,0.286412512
380.064,0.272727273,0.390196078,0.289345064
380.072,0.270772239,0.384313725,0.291300098
380.08,0.269794721,0.374509804,0.293255132
380.088,0.268817204,0.364705882,0.295210166
380.096,0.267839687,0.358823529,0.296187683
380.104,0.265884653,0.345098039,0.299120235
380.112,0.264907136,0.335294118,0.301075269
380.12,0.264907136,0.319607843,0.30400782
380.128,0.264907136,0.309803922,0.306940371
380.136,0.262952102,0.294117647,0.308895406
380.144,0.260997067,0.278431373,0.31085044
380.152,0.26001955,0.268627451,0.312805474
380.16,0.259042033,0.254901961,0.313782991
380.168,0.258064516,0.239215686,0.315738025
380.176,0.257086999,0.223529412,0.316715543
380.184,0.257086999,0.2,0.31769306
380.192,0.256109482,0.178431373,0.318670577
380.2,0.256109482,0.158823529,0.319648094
380.208,0.255131965,0.133333333,0.320625611
380.216,0.255131965,0.103921569,0.322580645
380.224,0.256109482,0.084313725,0.323558162
380.232,0.256109482,0.058823529,0.324535679
380.24,0.257086999,0.043137255,0.325513196
380.248,0.257086999,0.029411765,0.326490714
380.256,0.257086999,0.023529412,0.327468231
380.264,0.256109482,0.01372549,0.328445748
380.272,0.255131965,0.023529412,0.329423265
380.28,0.254154448,0.033333333,0.331378299
380.288,0.253176931,0.049019608,0.332355816
380.296,0.252199413,0.062745098,0.33431085
380.304,0.251221896,0.098039216,0.337243402
380.312,0.251221896,0.129411765,0.339198436
380.32,0.250244379,0.154901961,0.342130987
380.328,0.251221896,0.194117647,0.346041056
380.336,0.250244379,0.229411765,0.349951124
380.344,0.250244379,0.264705882,0.35483871
380.352,0.250244379,0.3,0.358748778
380.36,0.250244379,0.335294118,0.364613881
380.368,0.250244379,0.358823529,0.370478983
380.376,0.250244379,0.384313725,0.377321603
380.384,0.250244379,0.4,0.383186706
380.392,0.250244379,0.425490196,0.390029326
380.4,0.250244379,0.435294118,0.395894428
380.408,0.251221896,0.445098039,0.401759531
380.416,0.254154448,0.449019608,0.407624633
380.424,0.26001955,0.445098039,0.412512219
380.432,0.270772239,0.454901961,0.418377322
380.44,0.288367546,0.445098039,0.423264907
380.448,0.314760508,0.449019608,0.42913001
380.456,0.348973607,0.445098039,0.433040078
380.464,0.391006843,0.449019608,0.437927664
380.472,0.437927664,0.454901961,0.441837732
380.48,0.486803519,0.454901961,0.445747801
380.488,0.534701857,0.454901961,0.448680352
380.496,0.578690127,0.464705882,0.451612903
380.504,0.616813294,0.470588235,0.453567937
380.512,0.649071359,0.474509804,0.455522972
380.52,0.671554252,0.480392157,0.455522972
380.528,0.687194526,0.490196078,0.456500489
380.536,0.701857283,0.484313725,0.455522972
380.544,0.712609971,0.5,0.454545455
380.552,0.721407625,0.505882353,0.453567937
380.56,0.728250244,0.505882353,0.45259042
380.568,0.73313783,0.505882353,0.451612903
380.576,0.736070381,0.505882353,0.450635386
380.584,0.738025415,0.505882353,0.448680352
380.592,0.739002933,0.505882353,0.445747801
380.6,0.739002933,0.505882353,0.442815249
380.608,0.737047898,0.505882353,0.438905181
380.616,0.73313783,0.5,0.434995112
380.624,0.728250244,0.505882353,0.432062561
380.632,0.722385142,0.5,0.428152493
380.64,0.714565005,0.494117647,0.425219941
380.648,0.705767351,0.490196078,0.420332356
380.656,0.694037146,0.490196078,0.416422287
380.664,0.681329423,0.494117647,0.411534702
380.672,0.666666667,0.490196078,0.406647116
380.68,0.649071359,0.505882353,0.401759531
380.688,0.630498534,0.490196078,0.396871945
380.696,0.609970674,0.490196078,0.392961877
380.704,0.589442815,0.505882353,0.389051808
380.712,0.567937439,0.5,0.386119257
380.72,0.548387097,0.480392157,0.383186706
380.728,0.531769306,0.460784314,0.380254154
380.736,0.514173998,0.445098039,0.377321603
380.744,0.497556207,0.435294118,0.375366569
380.752,0.482893451,0.425490196,0.372434018
380.76,0.470185728,0.429411765,0.369501466
380.768,0.45943304,0.435294118,0.367546432
380.776,0.450635386,0.439215686,0.364613881
380.784,0.441837732,0.429411765,0.362658847
380.792,0.434017595,0.435294118,0.361681329
380.8,0.427174976,0.429411765,0.359726295
380.808,0.419354839,0.425490196,0.357771261
380.816,0.412512219,0.419607843,0.355816227
380.824,0.405669599,0.425490196,0.353861193
380.832,0.398826979,0.415686275,0.351906158
380.84,0.39198436,0.419607843,0.348973607
380.848,0.384164223,0.415686275,0.346041056
380.856,0.377321603,0.415686275,0.343108504
380.864,0.369501466,0.415686275,0.340175953
380.872,0.362658847,0.415686275,0.337243402
380.88,0.355816227,0.419607843,0.33431085
380.888,0.348973607,0.409803922,0.332355816
380.896,0.343108504,0.415686275,0.330400782
380.904,0.337243402,0.409803922,0.327468231
380.912,0.332355816,0.409803922,0.324535679
380.92,0.328445748,0.403921569,0.321603128
380.928,0.323558162,0.4,0.318670577
380.936,0.31769306,0.394117647,0.315738025
380.944,0.312805474,0.380392157,0.313782991
380.952,0.307917889,0.329411765,0.311827957
380.96,0.303030303,0.319607843,0.309872923
380.968,0.298142717,0.515686275,0.306940371
380.976,0.294232649,0.850980392,0.304985337
380.984,0.290322581,0.680392157,0.303030303
380.992,0.286412512,0.178431373,0.301075269
381,0.283479961,-0.237254902,0.299120235
381.008,0.28054741,-0.382352941,0.298142717
381.016,0.278592375,-0.321568627,0.296187683
381.024,0.277614858,-0.105882353,0.295210166
381.032,0.276637341,0.023529412,0.294232649
381.04,0.274682307,0.052941176,0.293255132
381.048,0.27370479,0.043137255,0.292277615
381.056,0.271749756,0.129411765,0.291300098
381.064,0.269794721,0.278431373,0.291300098
381.072,0.268817204,0.358823529,0.291300098
381.08,0.267839687,0.364705882,0.291300098
381.088,0.265884653,0.370588235,0.291300098
381.096,0.264907136,0.374509804,0.292277615
381.104,0.263929619,0.354901961,0.293255132
381.112,0.262952102,0.345098039,0.294232649
381.12,0.262952102,0.335294118,0.296187683
381.128,0.261974585,0.319607843,0.2971652
381.136,0.261974585,0.31372549,0.299120235
381.144,0.260997067,0.3,0.300097752
381.152,0.26001955,0.294117647,0.302052786
381.16,0.259042033,0.284313725,0.30400782
381.168,0.259042033,0.268627451,0.305962854
381.176,0.258064516,0.264705882,0.307917889
381.184,0.257086999,0.245098039,0.309872923
381.192,0.256109482,0.229411765,0.31085044
381.2,0.256109482,0.21372549,0.312805474
381.208,0.256109482,0.209803922,0.313782991
381.216,0.256109482,0.184313725,0.314760508
381.224,0.257086999,0.168627451,0.315738025
381.232,0.257086999,0.143137255,0.316715543
381.24,0.258064516,0.123529412,0.316715543
381.248,0.258064516,0.103921569,0.31769306
381.256,0.259042033,0.074509804,0.31769306
381.264,0.259042033,0.052941176,0.31769306
381.272,0.259042033,0.023529412,0.318670577
381.28,0.259042033,0.003921569,0.318670577
381.288,0.259042033,0.003921569,0.318670577
381.296,0.259042033,-0.015686275,0.319648094
381.304,0.258064516,-0.015686275,0.320625611
381.312,0.259042033,-0.015686275,0.322580645
381.32,0.259042033,-0.005882353,0.324535679
381.328,0.259042033,0.007843137,0.327468231
381.336,0.258064516,0.023529412,0.330400782
381.344,0.257086999,0.049019608,0.33431085
381.352,0.256109482,0.084313725,0.338220919
381.36,0.255131965,0.129411765,0.342130987
381.368,0.254154448,0.149019608,0.346041056
381.376,0.254154448,0.194117647,0.350928641
381.384,0.253176931,0.229411765,0.356793744
381.392,0.253176931,0.268627451,0.362658847
381.4,0.253176931,0.294117647,0.369501466
381.408,0.253176931,0.323529412,0.376344086
381.416,0.254154448,0.349019608,0.383186706
381.424,0.255131965,0.380392157,0.390029326
381.432,0.255131965,0.380392157,0.396871945
381.44,0.256109482,0.390196078,0.402737048
381.448,0.256109482,0.4,0.409579668
381.456,0.259042033,0.409803922,0.416422287
381.464,0.264907136,0.403921569,0.424242424
381.472,0.276637341,0.409803922,0.431085044
381.48,0.295210166,0.409803922,0.437927664
381.488,0.322580645,0.409803922,0.443792766
381.496,0.357771261,0.403921569,0.448680352
381.504,0.400782014,0.409803922,0.454545455
381.512,0.441837732,0.415686275,0.458455523
381.52,0.481915934,0.415686275,0.462365591
381.528,0.52688172,0.415686275,0.464320626
381.536,0.57086999,0.425490196,0.467253177
381.544,0.610948192,0.429411765,0.467253177
381.552,0.646138807,0.445098039,0.468230694
381.56,0.674486804,0.449019608,0.46627566
381.568,0.696969697,0.445098039,0.465298143
381.576,0.714565005,0.454901961,0.462365591
381.584,0.727272727,0.464705882,0.460410557
381.592,0.737047898,0.470588235,0.456500489
381.6,0.743890518,0.474509804,0.453567937
381.608,0.748778104,0.480392157,0.448680352
381.616,0.749755621,0.470588235,0.443792766
381.624,0.749755621,0.474509804,0.437927664
381.632,0.749755621,0.474509804,0.432062561
381.64,0.748778104,0.474509804,0.425219941
381.648,0.746823069,0.470588235,0.418377322
381.656,0.743890518,0.480392157,0.410557185
381.664,0.73998045,0.474509804,0.402737048
381.672,0.734115347,0.470588235,0.394916911
381.68,0.725317693,0.464705882,0.387096774
381.688,0.715542522,0.470588235,0.379276637
381.696,0.703812317,0.474509804,0.3714565
381.704,0.690127077,0.484313725,0.363636364
381.712,0.675464321,0.474509804,0.356793744
381.72,0.660801564,0.470588235,0.348973607
381.728,0.643206256,0.474509804,0.34115347
381.736,0.623655914,0.480392157,0.335288368
381.744,0.602150538,0.470588235,0.328445748
381.752,0.580645161,0.454901961,0.322580645
381.76,0.559139785,0.439215686,0.316715543
381.768,0.538611926,0.419607843,0.311827957
381.776,0.519061584,0.409803922,0.305962854
381.784,0.501466276,0.415686275,0.301075269
381.792,0.485826002,0.409803922,0.295210166
381.8,0.47311828,0.409803922,0.290322581
381.808,0.461388074,0.415686275,0.285434995
381.816,0.45259042,0.415686275,0.28054741
381.824,0.444770283,0.409803922,0.275659824
381.832,0.436950147,0.403921569,0.270772239
381.84,0.430107527,0.409803922,0.265884653
381.848,0.42228739,0.4,0.261974585
381.856,0.41544477,0.4,0.258064516
381.864,0.407624633,0.403921569,0.254154448
381.872,0.399804497,0.409803922,0.250244379
381.88,0.392961877,0.403921569,0.246334311
381.888,0.38514174,0.4,0.242424242
381.896,0.37829912,0.409803922,0.238514174
381.904,0.3714565,0.4,0.235581623
381.912,0.365591398,0.403921569,0.231671554
381.92,0.360703812,0.384313725,0.228739003
381.928,0.35483871,0.403921569,0.223851417
381.936,0.348973607,0.403921569,0.219941349
381.944,0.343108504,0.390196078,0.214076246
381.952,0.337243402,0.394117647,0.209188661
381.96,0.331378299,0.403921569,0.204301075
381.968,0.326490714,0.384313725,0.19941349
381.976,0.320625611,0.364705882,0.194525904
381.984,0.315738025,0.31372549,0.189638319
381.992,0.31085044,0.403921569,0.18572825
382,0.306940371,0.670588235,0.181818182
382.008,0.303030303,0.856862745,0.176930596
382.016,0.300097752,0.419607843,0.173020528
382.024,0.298142717,-0.082352941,0.170087977
382.032,0.295210166,-0.337254902,0.167155425
382.04,0.292277615,-0.382352941,0.164222874
382.048,0.289345064,-0.237254902,0.161290323
382.056,0.286412512,-0.015686275,0.159335288
382.064,0.283479961,0.052941176,0.157380254
382.072,0.28054741,0.058823529,0.15542522
382.08,0.277614858,0.033333333,0.153470186
382.088,0.275659824,0.174509804,0.152492669
382.096,0.272727273,0.319607843,0.150537634
382.104,0.270772239,0.380392157,0.149560117
382.112,0.269794721,0.384313725,0.1485826
382.12,0.269794721,0.390196078,0.147605083
382.128,0.268817204,0.384313725,0.146627566
382.136,0.26686217,0.374509804,0.146627566
382.144,0.265884653,0.364705882,0.146627566
382.152,0.264907136,0.354901961,0.146627566
382.16,0.263929619,0.349019608,0.147605083
382.168,0.262952102,0.339215686,0.147605083
382.176,0.262952102,0.319607843,0.1485826
382.184,0.261974585,0.309803922,0.1485826
382.192,0.260997067,0.3,0.147605083
382.2,0.26001955,0.290196078,0.146627566
382.208,0.259042033,0.290196078,0.146627566
