Time,PPG,ECG,resp
600,0.292277615,0.494140625,0.10459433
600.008,0.292277615,0.505859375,0.102639296
600.016,0.295210166,0.505859375,0.100684262
600.024,0.300097752,0.5,0.100684262
600.032,0.308895406,0.509765625,0.099706745
600.04,0.322580645,0.515625,0.099706745
600.048,0.343108504,0.515625,0.100684262
600.056,0.370478983,0.515625,0.101661779
600.064,0.404692082,0.515625,0.103616813
600.072,0.437927664,0.509765625,0.106549365
600.08,0.472140762,0.515625,0.109481916
600.088,0.514173998,0.509765625,0.112414467
600.096,0.559139785,0.505859375,0.115347019
600.104,0.605083089,0.509765625,0.119257087
600.112,0.649071359,0.515625,0.123167155
600.12,0.68914956,0.509765625,0.128054741
600.128,0.725317693,0.515625,0.131964809
600.136,0.75659824,0.515625,0.137829912
600.144,0.782013685,0.51953125,0.142717498
600.152,0.803519062,0.525390625,0.1485826
600.16,0.820136852,0.53515625,0.153470186
600.168,0.830889541,0.5703125,0.158357771
600.176,0.83773216,0.609375,0.16226784
600.184,0.84457478,0.634765625,0.166177908
600.192,0.850439883,0.66015625,0.170087977
600.2,0.856304985,0.650390625,0.173020528
600.208,0.862170088,0.619140625,0.176930596
600.216,0.865102639,0.583984375,0.17888563
600.224,0.867057674,0.5703125,0.181818182
600.232,0.866080156,0.5546875,0.183773216
600.24,0.862170088,0.564453125,0.18572825
600.248,0.855327468,0.595703125,0.187683284
600.256,0.84457478,0.5703125,0.189638319
600.264,0.830889541,0.525390625,0.191593353
600.272,0.816226784,0.494140625,0.19257087
600.28,0.799608993,0.474609375,0.193548387
600.288,0.780058651,0.455078125,0.194525904
600.296,0.758553275,0.4609375,0.194525904
600.304,0.737047898,0.455078125,0.195503421
600.312,0.714565005,0.4453125,0.195503421
600.32,0.694037146,0.4453125,0.196480938
600.328,0.673509286,0.44921875,0.196480938
600.336,0.655913978,0.455078125,0.197458456
600.344,0.639296188,0.46484375,0.198435973
600.352,0.625610948,0.580078125,0.19941349
600.36,0.613880743,0.875,0.201368524
600.368,0.604105572,1.134765625,0.203323558
600.376,0.596285435,1.125,0.204301075
600.384,0.590420332,1.154296875,0.206256109
600.392,0.586510264,0.779296875,0.208211144
600.4,0.583577713,0.279296875,0.210166178
600.408,0.582600196,-0.03515625,0.212121212
600.416,0.581622678,-0.16015625,0.214076246
600.424,0.581622678,-0.099609375,0.215053763
600.432,0.582600196,-0.01953125,0.217008798
600.44,0.58455523,0.16015625,0.218963832
600.448,0.586510264,0.314453125,0.219941349
600.456,0.589442815,0.349609375,0.221896383
600.464,0.591397849,0.359375,0.223851417
600.472,0.592375367,0.365234375,0.225806452
600.48,0.593352884,0.37109375,0.228739003
600.488,0.594330401,0.380859375,0.230694037
600.496,0.596285435,0.375,0.232649071
600.504,0.597262952,0.375,0.234604106
600.512,0.596285435,0.380859375,0.235581623
600.52,0.595307918,0.380859375,0.237536657
600.528,0.593352884,0.380859375,0.238514174
600.536,0.590420332,0.375,0.240469208
600.544,0.587487781,0.390625,0.241446725
600.552,0.583577713,0.39453125,0.24340176
600.56,0.578690127,0.390625,0.245356794
600.568,0.573802542,0.400390625,0.247311828
600.576,0.568914956,0.400390625,0.249266862
600.584,0.56402737,0.41015625,0.251221896
600.592,0.558162268,0.416015625,0.253176931
600.6,0.553274682,0.42578125,0.255131965
600.608,0.548387097,0.4453125,0.257086999
600.616,0.543499511,0.470703125,0.259042033
600.624,0.537634409,0.5,0.260997067
600.632,0.531769306,0.53515625,0.263929619
600.64,0.524926686,0.57421875,0.265884653
600.648,0.517106549,0.625,0.267839687
600.656,0.51026393,0.66015625,0.269794721
600.664,0.502443793,0.6953125,0.272727273
600.672,0.495601173,0.724609375,0.274682307
600.68,0.48973607,0.75,0.276637341
600.688,0.482893451,0.765625,0.278592375
600.696,0.477028348,0.75390625,0.28054741
600.704,0.472140762,0.744140625,0.282502444
600.712,0.467253177,0.720703125,0.283479961
600.72,0.463343109,0.6796875,0.285434995
600.728,0.45943304,0.640625,0.285434995
600.736,0.455522972,0.60546875,0.285434995
600.744,0.45259042,0.5703125,0.285434995
600.752,0.448680352,0.5390625,0.284457478
600.76,0.443792766,0.51953125,0.282502444
600.768,0.439882698,0.509765625,0.28054741
600.776,0.43597263,0.494140625,0.277614858
600.784,0.431085044,0.484375,0.274682307
600.792,0.426197458,0.470703125,0.269794721
600.8,0.421309873,0.470703125,0.265884653
600.808,0.41544477,0.470703125,0.260997067
600.816,0.410557185,0.4609375,0.256109482
600.824,0.405669599,0.46484375,0.251221896
600.832,0.400782014,0.46484375,0.246334311
600.84,0.395894428,0.46484375,0.241446725
600.848,0.391006843,0.470703125,0.237536657
600.856,0.386119257,0.470703125,0.233626588
600.864,0.381231672,0.474609375,0.230694037
600.872,0.376344086,0.48046875,0.227761486
600.88,0.372434018,0.484375,0.225806452
600.888,0.367546432,0.474609375,0.224828935
600.896,0.363636364,0.474609375,0.224828935
600.904,0.359726295,0.48046875,0.224828935
600.912,0.356793744,0.484375,0.225806452
600.92,0.355816227,0.484375,0.228739003
600.928,0.357771261,0.490234375,0.230694037
600.936,0.364613881,0.494140625,0.233626588
600.944,0.366568915,0.490234375,0.237536657
600.952,0.368523949,0.490234375,0.242424242
600.96,0.382209189,0.490234375,0.247311828
600.968,0.399804497,0.484375,0.253176931
600.976,0.417399804,0.490234375,0.259042033
600.984,0.440860215,0.494140625,0.264907136
600.992,0.468230694,0.490234375,0.270772239
601,0.50342131,0.494140625,0.276637341
601.008,0.552297165,0.484375,0.282502444
601.016,0.613880743,0.490234375,0.288367546
601.024,0.675464321,0.494140625,0.295210166
601.032,0.709677419,0.494140625,0.302052786
601.04,0.679374389,0.494140625,0.308895406
601.048,0.549364614,0.505859375,0.314760508
601.056,0.34115347,0.515625,0.321603128
601.064,0.170087977,0.5390625,0.326490714
601.072,0.085043988,0.5703125,0.331378299
601.08,0.042033236,0.60546875,0.336265885
601.088,0.020527859,0.625,0.340175953
601.096,0.009775171,0.634765625,0.344086022
601.104,0.004887586,0.599609375,0.34799609
601.112,0.001955034,0.580078125,0.350928641
601.12,0.000977517,0.564453125,0.353861193
601.128,0,0.544921875,0.356793744
601.136,0,0.5390625,0.358748778
601.144,0,0.560546875,0.359726295
601.152,0,0.57421875,0.361681329
601.16,0,0.51953125,0.362658847
601.168,0,0.474609375,0.363636364
601.176,0,0.44921875,0.364613881
601.184,0,0.439453125,0.365591398
601.192,0,0.42578125,0.366568915
601.2,0,0.42578125,0.366568915
601.208,0,0.42578125,0.367546432
601.216,0,0.419921875,0.367546432
601.224,0,0.419921875,0.367546432
601.232,0,0.42578125,0.368523949
601.24,0,0.42578125,0.368523949
601.248,0,0.474609375,0.368523949
601.256,0,0.6796875,0.368523949
601.264,0,1.00390625,0.368523949
601.272,0,1.138671875,0.369501466
601.28,0,1.119140625,0.369501466
601.288,0,1.14453125,0.370478983
601.296,0,0.435546875,0.3714565
601.304,0,0.10546875,0.372434018
601.312,0,-0.125,0.374389052
601.32,0,-0.1640625,0.375366569
601.328,0,-0.08984375,0.377321603
601.336,0,0.044921875,0.379276637
601.344,0,0.240234375,0.381231672
601.352,0,0.314453125,0.384164223
601.36,0,0.3359375,0.387096774
601.368,0,0.35546875,0.389051808
601.376,0,0.37109375,0.39198436
601.384,0,0.365234375,0.393939394
601.392,0,0.359375,0.396871945
601.4,0,0.35546875,0.399804497
601.408,0,0.359375,0.402737048
601.416,0,0.375,0.405669599
601.424,0,0.375,0.408602151
601.432,0,0.380859375,0.411534702
601.44,0,0.384765625,0.41544477
601.448,0,0.400390625,0.418377322
601.456,0,0.39453125,0.421309873
601.464,0,0.400390625,0.424242424
601.472,0,0.39453125,0.427174976
601.48,0,0.416015625,0.431085044
601.488,0,0.419921875,0.434017595
601.496,0,0.435546875,0.437927664
601.504,0,0.439453125,0.441837732
601.512,0,0.474609375,0.445747801
601.52,0,0.494140625,0.449657869
601.528,0,0.525390625,0.453567937
601.536,0,0.564453125,0.457478006
601.544,0,0.60546875,0.461388074
601.552,0,0.634765625,0.46627566
601.56,0,0.669921875,0.471163245
601.568,0,0.720703125,0.477028348
601.576,0,0.75,0.482893451
601.584,0,0.75390625,0.48973607
601.592,0,0.759765625,0.495601173
601.6,0,0.765625,0.502443793
601.608,0,0.744140625,0.508308895
601.616,0,0.69921875,0.515151515
601.624,0,0.66015625,0.520039101
601.632,0,0.634765625,0.525904203
601.64,0,0.595703125,0.529814272
601.648,0,0.564453125,0.534701857
601.656,0,0.5390625,0.537634409
601.664,0,0.515625,0.541544477
601.672,0,0.494140625,0.543499511
601.68,0,0.490234375,0.546432063
601.688,0,0.494140625,0.548387097
601.696,0,0.494140625,0.549364614
601.704,0,0.48046875,0.551319648
601.712,0,0.470703125,0.552297165
601.72,0,0.48046875,0.553274682
601.728,0,0.484375,0.554252199
601.736,0,0.490234375,0.556207234
601.744,0,0.494140625,0.558162268
601.752,0,0.470703125,0.560117302
601.76,0,0.470703125,0.563049853
601.768,0,0.494140625,0.565982405
601.776,0,0.505859375,0.569892473
601.784,0,0.494140625,0.573802542
601.792,0,0.5,0.57771261
601.8,0,0.509765625,0.581622678
601.808,0,0.515625,0.585532747
601.816,0,0.515625,0.592375367
601.824,0,0.51953125,0.599217986
601.832,0,0.515625,0.60801564
601.84,0,0.53515625,0.616813294
601.848,0,0.5,0.626588465
601.856,0,0.484375,0.635386119
601.864,0.004887586,0.51953125,0.644183773
601.872,0.025415445,0.529296875,0.653958944
601.88,0.061583578,0.51953125,0.664711632
601.888,0.107526882,0.544921875,0.675464321
601.896,0.158357771,0.515625,0.687194526
601.904,0.211143695,0.509765625,0.699902248
601.912,0.261974585,0.51953125,0.712609971
601.92,0.309872923,0.51953125,0.72629521
601.928,0.353861193,0.529296875,0.739002933
601.936,0.39198436,0.5390625,0.752688172
601.944,0.424242424,0.529296875,0.765395894
601.952,0.451612903,0.5546875,0.7771261
601.96,0.47311828,0.5703125,0.787878788
601.968,0.488758553,0.595703125,0.798631476
601.976,0.499511241,0.619140625,0.809384164
601.984,0.507331378,0.654296875,0.820136852
601.992,0.513196481,0.66015625,0.830889541
602,0.515151515,0.640625,0.841642229
602.008,0.515151515,0.609375,0.8514174
602.016,0.513196481,0.609375,0.861192571
602.024,0.507331378,0.599609375,0.869990225
602.032,0.499511241,0.58984375,0.879765396
602.04,0.488758553,0.615234375,0.88856305
602.048,0.475073314,0.599609375,0.898338221
602.056,0.45943304,0.564453125,0.908113392
602.064,0.444770283,0.53515625,0.917888563
602.072,0.428152493,0.5,0.928641251
602.08,0.409579668,0.48046875,0.938416422
602.088,0.389051808,0.46484375,0.950146628
602.096,0.367546432,0.4609375,0.960899316
602.104,0.345063539,0.474609375,0.970674487
602.112,0.323558162,0.48046875,0.981427175
602.12,0.303030303,0.46484375,0.990224829
602.128,0.283479961,0.455078125,1
602.136,0.265884653,0.470703125,1
602.144,0.250244379,0.529296875,1
602.152,0.238514174,0.689453125,1
602.16,0.228739003,0.96875,1
602.168,0.2228739,1.208984375,1
602.176,0.218963832,1.2734375,1
602.184,0.217008798,1.32421875,1
602.192,0.216031281,0.470703125,1
602.2,0.216031281,-0.0703125,1
602.208,0.217008798,-0.25390625,1
602.216,0.218963832,-0.189453125,1
602.224,0.221896383,-0.064453125,1
602.232,0.224828935,0.095703125,1
602.24,0.227761486,0.291015625,1
602.248,0.231671554,0.33984375,1
602.256,0.234604106,0.37109375,1
602.264,0.23655914,0.380859375,1
602.272,0.239491691,0.375,1
602.28,0.241446725,0.416015625,1
602.288,0.242424242,0.435546875,1
602.296,0.242424242,0.416015625,1
602.304,0.241446725,0.42578125,1
602.312,0.240469208,0.42578125,1
602.32,0.238514174,0.416015625,1
602.328,0.235581623,0.416015625,1
602.336,0.232649071,0.42578125,1
602.344,0.22971652,0.435546875,1
602.352,0.226783969,0.4296875,1
602.36,0.223851417,0.42578125,1
602.368,0.220918866,0.435546875,1
602.376,0.218963832,0.4453125,1
602.384,0.216031281,0.435546875,1
602.392,0.213098729,0.4296875,1
602.4,0.208211144,0.44921875,1
602.408,0.204301075,0.474609375,1
602.416,0.200391007,0.490234375,1
602.424,0.196480938,0.515625,1
602.432,0.193548387,0.5546875,1
602.44,0.189638319,0.58984375,1
602.448,0.18572825,0.619140625,1
602.456,0.181818182,0.654296875,1
602.464,0.177908113,0.6953125,1
602.472,0.175953079,0.724609375,1
602.48,0.171065494,0.75,1
602.488,0.166177908,0.765625,1
602.496,0.161290323,0.775390625,1
602.504,0.156402737,0.744140625,1
602.512,0.152492669,0.724609375,1
602.52,0.147605083,0.689453125,1
602.528,0.143695015,0.6640625,1
602.536,0.140762463,0.619140625,1
602.544,0.137829912,0.58984375,1
602.552,0.135874878,0.560546875,1
602.56,0.133919844,0.544921875,1
602.568,0.132942326,0.529296875,1
602.576,0.132942326,0.51953125,1
602.584,0.132942326,0.515625,1
602.592,0.131964809,0.515625,1
602.6,0.130987292,0.509765625,1
602.608,0.130009775,0.515625,1
602.616,0.130009775,0.515625,1
602.624,0.130009775,0.515625,1
602.632,0.130009775,0.51953125,1
602.64,0.130009775,0.51953125,1
602.648,0.130009775,0.515625,1
602.656,0.129032258,0.525390625,1
602.664,0.129032258,0.525390625,1
602.672,0.130009775,0.51953125,1
602.68,0.129032258,0.529296875,1
602.688,0.129032258,0.53515625,1
602.696,0.128054741,0.5390625,1
602.704,0.128054741,0.5390625,1
602.712,0.128054741,0.5390625,1
602.72,0.129032258,0.53515625,1
602.728,0.132942326,0.53515625,1
602.736,0.139784946,0.529296875,1
602.744,0.151515152,0.525390625,1
602.752,0.168132942,0.529296875,1
602.76,0.19257087,0.529296875,0.992179863
602.768,0.218963832,0.53515625,0.984359726
602.776,0.248289345,0.529296875,0.973607038
602.784,0.287390029,0.525390625,0.963831867
602.792,0.332355816,0.51953125,0.953079179
602.8,0.380254154,0.525390625,0.942326491
602.808,0.430107527,0.51953125,0.93255132
602.816,0.479960899,0.51953125,0.922776149
602.824,0.525904203,0.51953125,0.913978495
602.832,0.567937439,0.51953125,0.905180841
602.84,0.605083089,0.51953125,0.896383187
602.848,0.636363636,0.525390625,0.887585533
602.856,0.661779081,0.55078125,0.878787879
602.864,0.678396872,0.583984375,0.869990225
602.872,0.68914956,0.615234375,0.860215054
602.88,0.697947214,0.634765625,0.8514174
602.888,0.7028348,0.64453125,0.841642229
602.896,0.703812317,0.619140625,0.832844575
602.904,0.7028348,0.583984375,0.823069404
602.912,0.697947214,0.564453125,0.813294233
602.92,0.690127077,0.55078125,0.804496579
602.928,0.680351906,0.5390625,0.794721408
602.936,0.668621701,0.564453125,0.785923754
602.944,0.653958944,0.580078125,0.776148583
602.952,0.637341153,0.53515625,0.766373412
602.96,0.619745846,0.490234375,0.75659824
602.968,0.601173021,0.46484375,0.747800587
602.976,0.579667644,0.4453125,0.739002933
602.984,0.557184751,0.4296875,0.730205279
602.992,0.586510264,0.4296875,0.722385142
603,0.648093842,0.42578125,0.714565005
603.008,0.677419355,0.42578125,0.706744868
603.016,0.690127077,0.4296875,0.699902248
603.024,0.695014663,0.42578125,0.693059629
603.032,0.69599218,0.435546875,0.685239492
603.04,0.695014663,0.4296875,0.678396872
603.048,0.694037146,0.64453125,0.671554252
603.056,0.692082111,0.96875,0.664711632
603.064,0.691104594,1.134765625,0.65884653
603.072,0.690127077,1.109375,0.652981427
603.08,0.68914956,1.134765625,0.647116325
603.088,0.68914956,0.505859375,0.641251222
603.096,0.688172043,0.099609375,0.634408602
603.104,0.688172043,-0.16015625,0.6285435
603.112,0.688172043,-0.208984375,0.62170088
603.12,0.68914956,-0.119140625,0.61485826
603.128,0.68914956,-0.00390625,0.60801564
603.136,0.690127077,0.189453125,0.602150538
603.144,0.690127077,0.30078125,0.596285435
603.152,0.690127077,0.330078125,0.590420332
603.16,0.690127077,0.35546875,0.58455523
603.168,0.691104594,0.359375,0.57771261
603.176,0.691104594,0.365234375,0.57086999
603.184,0.691104594,0.35546875,0.565004888
603.192,0.691104594,0.359375,0.557184751
603.2,0.691104594,0.365234375,0.550342131
603.208,0.690127077,0.365234375,0.542521994
603.216,0.690127077,0.375,0.535679374
603.224,0.690127077,0.375,0.528836755
603.232,0.68914956,0.375,0.522971652
603.24,0.68914956,0.375,0.517106549
603.248,0.688172043,0.380859375,0.511241447
603.256,0.688172043,0.384765625,0.504398827
603.264,0.687194526,0.390625,0.498533724
603.272,0.687194526,0.39453125,0.491691105
603.28,0.686217009,0.404296875,0.484848485
603.288,0.686217009,0.419921875,0.478983382
603.296,0.685239492,0.435546875,0.47311828
603.304,0.684261975,0.4453125,0.467253177
603.312,0.684261975,0.474609375,0.462365591
603.32,0.683284457,0.5,0.458455523
603.328,0.68230694,0.544921875,0.453567937
603.336,0.68230694,0.583984375,0.450635386
603.344,0.681329423,0.625,0.446725318
603.352,0.681329423,0.669921875,0.443792766
603.36,0.680351906,0.705078125,0.439882698
603.368,0.680351906,0.740234375,0.436950147
603.376,0.679374389,0.759765625,0.434017595
603.384,0.679374389,0.775390625,0.431085044
603.392,0.678396872,0.76953125,0.428152493
603.4,0.678396872,0.744140625,0.426197458
603.408,0.677419355,0.708984375,0.423264907
603.416,0.677419355,0.67578125,0.419354839
603.424,0.677419355,0.640625,0.41544477
603.432,0.676441838,0.60546875,0.409579668
603.44,0.676441838,0.57421875,0.403714565
603.448,0.676441838,0.544921875,0.397849462
603.456,0.675464321,0.53515625,0.39198436
603.464,0.675464321,0.515625,0.38514174
603.472,0.675464321,0.494140625,0.37829912
603.48,0.675464321,0.494140625,0.369501466
603.488,0.675464321,0.490234375,0.361681329
603.496,0.675464321,0.490234375,0.350928641
603.504,0.674486804,0.484375,0.34115347
603.512,0.674486804,0.48046875,0.330400782
603.52,0.674486804,0.474609375,0.319648094
603.528,0.674486804,0.490234375,0.308895406
603.536,0.674486804,0.490234375,0.298142717
603.544,0.673509286,0.484375,0.289345064
603.552,0.673509286,0.490234375,0.279569892
603.56,0.673509286,0.494140625,0.271749756
603.568,0.673509286,0.494140625,0.262952102
603.576,0.672531769,0.5,0.256109482
603.584,0.672531769,0.5,0.249266862
603.592,0.672531769,0.505859375,0.242424242
603.6,0.671554252,0.5,0.23655914
603.608,0.671554252,0.505859375,0.231671554
603.616,0.671554252,0.5,0.226783969
603.624,0.672531769,0.5,0.2228739
603.632,0.673509286,0.494140625,0.219941349
603.64,0.675464321,0.494140625,0.218963832
603.648,0.678396872,0.5,0.217008798
603.656,0.683284457,0.494140625,0.217986315
603.664,0.687194526,0.5,0.217986315
603.672,0.692082111,0.494140625,0.218963832
603.68,0.697947214,0.494140625,0.219941349
603.688,0.703812317,0.494140625,0.220918866
603.696,0.710654936,0.490234375,0.221896383
603.704,0.717497556,0.484375,0.2228739
603.712,0.723362659,0.494140625,0.223851417
603.72,0.728250244,0.494140625,0.224828935
603.728,0.73313783,0.5,0.225806452
603.736,0.737047898,0.515625,0.226783969
603.744,0.740957967,0.560546875,0.226783969
603.752,0.742913001,0.58984375,0.227761486
603.76,0.744868035,0.619140625,0.228739003
603.768,0.744868035,0.62890625,0.228739003
603.776,0.745845552,0.599609375,0.22971652
603.784,0.745845552,0.560546875,0.22971652
603.792,0.745845552,0.5546875,0.230694037
603.8,0.744868035,0.5390625,0.22971652
603.808,0.743890518,0.5390625,0.228739003
603.816,0.742913001,0.5390625,0.227761486
603.824,0.740957967,0.560546875,0.225806452
603.832,0.739002933,0.525390625,0.223851417
603.84,0.736070381,0.48046875,0.221896383
603.848,0.73313783,0.4609375,0.219941349
603.856,0.730205279,0.435546875,0.217008798
603.864,0.727272727,0.42578125,0.215053763
603.872,0.724340176,0.419921875,0.212121212
603.88,0.721407625,0.419921875,0.210166178
603.888,0.717497556,0.42578125,0.208211144
603.896,0.713587488,0.42578125,0.204301075
603.904,0.710654936,0.42578125,0.201368524
603.912,0.706744868,0.42578125,0.198435973
603.92,0.703812317,0.455078125,0.194525904
603.928,0.700879765,0.64453125,0.191593353
603.936,0.698924731,0.96875,0.189638319
603.944,0.69599218,1.12890625,0.187683284
603.952,0.694037146,1.099609375,0.18572825
603.96,0.693059629,1.119140625,0.183773216
603.968,0.692082111,0.5,0.181818182
603.976,0.691104594,0.15625,0.17888563
603.984,0.691104594,-0.109375,0.176930596
603.992,0.690127077,-0.173828125,0.173998045
604,0.690127077,-0.103515625,0.171065494
604.008,0.690127077,0,0.168132942
604.016,0.691104594,0.189453125,0.166177908
604.024,0.691104594,0.3046875,0.163245357
604.032,0.691104594,0.330078125,0.161290323
604.04,0.691104594,0.3359375,0.159335288
604.048,0.692082111,0.349609375,0.157380254
604.056,0.692082111,0.35546875,0.15542522
604.064,0.692082111,0.35546875,0.154447703
604.072,0.692082111,0.359375,0.152492669
604.08,0.691104594,0.365234375,0.151515152
604.088,0.691104594,0.35546875,0.150537634
604.096,0.691104594,0.375,0.149560117
604.104,0.690127077,0.375,0.147605083
604.112,0.690127077,0.375,0.146627566
604.12,0.68914956,0.375,0.145650049
604.128,0.688172043,0.384765625,0.144672532
604.136,0.688172043,0.384765625,0.143695015
604.144,0.687194526,0.400390625,0.143695015
604.152,0.686217009,0.400390625,0.142717498
604.16,0.686217009,0.416015625,0.14173998
604.168,0.685239492,0.42578125,0.140762463
604.176,0.685239492,0.4453125,0.140762463
604.184,0.684261975,0.46484375,0.139784946
604.192,0.683284457,0.494140625,0.138807429
604.2,0.68230694,0.51953125,0.137829912
604.208,0.68230694,0.560546875,0.137829912
604.216,0.681329423,0.599609375,0.136852395
604.224,0.680351906,0.640625,0.136852395
604.232,0.679374389,0.6796875,0.135874878
604.24,0.678396872,0.71484375,0.135874878
604.248,0.678396872,0.75,0.135874878
604.256,0.677419355,0.765625,0.135874878
604.264,0.676441838,0.775390625,0.135874878
604.272,0.676441838,0.76953125,0.135874878
604.28,0.675464321,0.744140625,0.134897361
604.288,0.675464321,0.71484375,0.133919844
604.296,0.674486804,0.67578125,0.131964809
604.304,0.674486804,0.62890625,0.130009775
604.312,0.673509286,0.595703125,0.126099707
604.32,0.673509286,0.564453125,0.122189638
604.328,0.672531769,0.5390625,0.117302053
604.336,0.672531769,0.51953125,0.112414467
604.344,0.671554252,0.505859375,0.107526882
604.352,0.671554252,0.490234375,0.102639296
604.36,0.671554252,0.484375,0.097751711
604.368,0.671554252,0.470703125,0.092864125
604.376,0.670576735,0.474609375,0.086021505
604.384,0.670576735,0.474609375,0.080156403
604.392,0.670576735,0.474609375,0.073313783
604.4,0.670576735,0.470703125,0.066471163
604.408,0.669599218,0.470703125,0.059628543
604.416,0.669599218,0.474609375,0.052785924
604.424,0.669599218,0.470703125,0.046920821
604.432,0.668621701,0.48046875,0.042033236
604.44,0.668621701,0.48046875,0.036168133
604.448,0.667644184,0.474609375,0.03030303
604.456,0.667644184,0.474609375,0.024437928
604.464,0.667644184,0.474609375,0.019550342
604.472,0.667644184,0.48046875,0.014662757
604.48,0.667644184,0.484375,0.010752688
604.488,0.667644184,0.484375,0.00684262
604.496,0.667644184,0.474609375,0.003910068
604.504,0.668621701,0.474609375,0.001955034
604.512,0.669599218,0.490234375,0.000977517
604.52,0.671554252,0.490234375,0
604.528,0.674486804,0.490234375,0
604.536,0.678396872,0.484375,0.000977517
604.544,0.683284457,0.494140625,0.000977517
604.552,0.68914956,0.494140625,0.002932551
604.56,0.694037146,0.490234375,0.003910068
604.568,0.699902248,0.494140625,0.00684262
604.576,0.705767351,0.494140625,0.008797654
604.584,0.711632454,0.5,0.012707722
604.592,0.717497556,0.494140625,0.015640274
604.6,0.722385142,0.5,0.018572825
604.608,0.727272727,0.5,0.021505376
604.616,0.731182796,0.5,0.023460411
604.624,0.734115347,0.509765625,0.025415445
604.632,0.737047898,0.525390625,0.027370479
604.64,0.739002933,0.560546875,0.028347996
604.648,0.73998045,0.583984375,0.029325513
604.656,0.740957967,0.609375,0.03030303
604.664,0.73998045,0.634765625,0.031280547
604.672,0.73998045,0.609375,0.032258065
604.68,0.739002933,0.583984375,0.033235582
604.688,0.738025415,0.55078125,0.034213099
604.696,0.736070381,0.5390625,0.033235582
604.704,0.734115347,0.525390625,0.033235582
604.712,0.732160313,0.53515625,0.031280547
604.72,0.729227761,0.560546875,0.029325513
604.728,0.727272727,0.53515625,0.026392962
604.736,0.724340176,0.490234375,0.024437928
604.744,0.720430108,0.470703125,0.021505376
604.752,0.717497556,0.4453125,0.019550342
604.76,0.713587488,0.42578125,0.015640274
604.768,0.710654936,0.419921875,0.012707722
604.776,0.706744868,0.419921875,0.008797654
604.784,0.703812317,0.42578125,0.005865103
604.792,0.699902248,0.42578125,0.002932551
604.8,0.69599218,0.42578125,0
604.808,0.693059629,0.42578125,0
604.816,0.690127077,0.439453125,0
604.824,0.688172043,0.5703125,0
604.832,0.685239492,0.869140625,0
604.84,0.683284457,1.115234375,0
604.848,0.68230694,1.12890625,0
604.856,0.681329423,1.103515625,0
604.864,0.680351906,0.705078125,0
604.872,0.679374389,0.25,0
604.88,0.679374389,-0.044921875,0
604.888,0.678396872,-0.1640625,0
604.896,0.678396872,-0.119140625,0
604.904,0.678396872,-0.03515625,0
604.912,0.678396872,0.14453125,0
604.92,0.678396872,0.291015625,0
604.928,0.678396872,0.3359375,0
604.936,0.677419355,0.349609375,0
604.944,0.677419355,0.35546875,0
604.952,0.677419355,0.35546875,0
604.96,0.676441838,0.365234375,0
604.968,0.676441838,0.37109375,0
604.976,0.676441838,0.37109375,0
604.984,0.675464321,0.375,0
604.992,0.675464321,0.375,0
605,0.674486804,0.375,0
605.008,0.673509286,0.375,0
605.016,0.672531769,0.384765625,0
605.024,0.672531769,0.39453125,0
605.032,0.671554252,0.400390625,0
605.04,0.568914956,0.400390625,0
605.048,0.414467253,0.400390625,0
605.056,0.335288368,0.400390625,0.000977517
605.064,0.294232649,0.419921875,0.002932551
605.072,0.271749756,0.4296875,0.005865103
605.08,0.258064516,0.4453125,0.007820137
605.088,0.249266862,0.470703125,0.010752688
605.096,0.242424242,0.494140625,0.013685239
605.104,0.237536657,0.53515625,0.015640274
605.112,0.233626588,0.57421875,0.018572825
605.12,0.22971652,0.615234375,0.020527859
605.128,0.226783969,0.66015625,0.023460411
605.136,0.223851417,0.6953125,0.025415445
605.144,0.220918866,0.73046875,0.027370479
605.152,0.218963832,0.75,0.03030303
605.16,0.217986315,0.76953125,0.032258065
605.168,0.217986315,0.775390625,0.034213099
605.176,0.217008798,0.75,0.035190616
605.184,0.217008798,0.724609375,0.035190616
605.192,0.217986315,0.6953125,0.034213099
605.2,0.217986315,0.6640625,0.034213099
605.208,0.218963832,0.619140625,0.033235582
605.216,0.219941349,0.58984375,0.032258065
605.224,0.221896383,0.564453125,0.03030303
605.232,0.223851417,0.529296875,0.029325513
605.24,0.225806452,0.515625,0.025415445
605.248,0.227761486,0.494140625,0.022482893
605.256,0.230694037,0.490234375,0.017595308
605.264,0.232649071,0.48046875,0.012707722
605.272,0.234604106,0.474609375,0.00684262
605.28,0.237536657,0.470703125,0
605.288,0.239491691,0.474609375,0
605.296,0.241446725,0.48046875,0
605.304,0.24340176,0.474609375,0
605.312,0.245356794,0.484375,0
605.32,0.247311828,0.48046875,0
605.328,0.248289345,0.494140625,0
605.336,0.250244379,0.494140625,0
605.344,0.251221896,0.5,0
605.352,0.252199413,0.494140625,0
605.36,0.253176931,0.505859375,0
605.368,0.254154448,0.505859375,0
605.376,0.254154448,0.515625,0
605.384,0.255131965,0.51953125,0
605.392,0.258064516,0.509765625,0
605.4,0.261974585,0.505859375,0
605.408,0.270772239,0.505859375,0
605.416,0.283479961,0.505859375,0
605.424,0.303030303,0.515625,0
605.432,0.328445748,0.505859375,0
605.44,0.359726295,0.509765625,0
605.448,0.396871945,0.515625,0
605.456,0.432062561,0.509765625,0
605.464,0.46627566,0.515625,0
605.472,0.505376344,0.51953125,0
605.48,0.546432063,0.51953125,0
605.488,0.586510264,0.51953125,0
605.496,0.623655914,0.51953125,0
605.504,0.656891496,0.51953125,0
605.512,0.685239492,0.529296875,0.002932551
605.52,0.708699902,0.544921875,0.00684262
605.528,0.728250244,0.5703125,0.011730205
605.536,0.742913001,0.599609375,0.016617791
605.544,0.752688172,0.634765625,0.020527859
605.552,0.758553275,0.66015625,0.024437928
605.56,0.760508309,0.654296875,0.028347996
605.568,0.758553275,0.625,0.032258065
605.576,0.755620723,0.595703125,0.034213099
605.584,0.750733138,0.5703125,0.03714565
605.592,0.742913001,0.55078125,0.039100684
605.6,0.734115347,0.5546875,0.041055718
605.608,0.722385142,0.580078125,0.043010753
605.616,0.708699902,0.58984375,0.04398827
605.624,0.692082111,0.529296875,0.045943304
605.632,0.674486804,0.490234375,0.046920821
605.64,0.655913978,0.470703125,0.049853372
605.648,0.635386119,0.4453125,0.051808407
605.656,0.615835777,0.4453125,0.054740958
605.664,0.597262952,0.439453125,0.056695992
605.672,0.576735093,0.4453125,0.059628543
605.68,0.556207234,0.435546875,0.062561095
605.688,0.535679374,0.435546875,0.065493646
605.696,0.515151515,0.439453125,0.068426197
605.704,0.497556207,0.4453125,0.071358749
605.712,0.480938416,0.505859375,0.0742913
605.72,0.46627566,0.734375,0.078201369
605.728,0.454545455,1.048828125,0.08113392
605.736,0.444770283,1.12890625,0.085043988
605.744,0.436950147,1.109375,0.088954057
605.752,0.431085044,1.125,0.092864125
605.76,0.427174976,0.375,0.097751711
605.768,0.425219941,0.060546875,0.102639296
605.776,0.424242424,-0.12890625,0.107526882
605.784,0.423264907,-0.154296875,0.11143695
605.792,0.423264907,-0.05859375,0.116324536
605.8,0.424242424,0.076171875,0.120234604
605.808,0.425219941,0.26953125,0.12512219
605.816,0.425219941,0.3359375,0.129032258
605.824,0.426197458,0.35546875,0.133919844
605.832,0.426197458,0.359375,0.138807429
605.84,0.427174976,0.37109375,0.142717498
605.848,0.427174976,0.375,0.146627566
605.856,0.427174976,0.384765625,0.151515152
605.864,0.427174976,0.39453125,0.154447703
605.872,0.427174976,0.384765625,0.158357771
605.88,0.428152493,0.384765625,0.16226784
605.888,0.428152493,0.390625,0.165200391
605.896,0.428152493,0.39453125,0.168132942
605.904,0.428152493,0.400390625,0.172043011
605.912,0.427174976,0.390625,0.174975562
605.92,0.426197458,0.404296875,0.177908113
605.928,0.425219941,0.419921875,0.180840665
605.936,0.423264907,0.416015625,0.184750733
605.944,0.420332356,0.42578125,0.187683284
605.952,0.417399804,0.4296875,0.190615836
605.96,0.413489736,0.439453125,0.19257087
605.968,0.409579668,0.4609375,0.195503421
605.976,0.404692082,0.474609375,0.197458456
605.984,0.399804497,0.494140625,0.200391007
605.992,0.393939394,0.525390625,0.202346041
606,0.387096774,0.5703125,0.204301075
606.008,0.381231672,0.615234375,0.206256109
606.016,0.374389052,0.66015625,0.209188661
606.024,0.367546432,0.69921875,0.211143695
606.032,0.360703812,0.724609375,0.214076246
606.04,0.353861193,0.759765625,0.216031281
606.048,0.34799609,0.779296875,0.217986315
606.056,0.342130987,0.78515625,0.218963832
606.064,0.337243402,0.775390625,0.220918866
606.072,0.332355816,0.775390625,0.221896383
606.08,0.326490714,0.734375,0.2228739
606.088,0.320625611,0.685546875,0.2228739
606.096,0.315738025,0.64453125,0.223851417
606.104,0.31085044,0.599609375,0.223851417
606.112,0.305962854,0.5703125,0.223851417
606.12,0.302052786,0.560546875,0.2228739
606.128,0.298142717,0.55078125,0.2228739
606.136,0.294232649,0.53515625,0.220918866
606.144,0.291300098,0.51953125,0.218963832
606.152,0.287390029,0.509765625,0.217008798
606.16,0.284457478,0.494140625,0.214076246
606.168,0.282502444,0.505859375,0.212121212
606.176,0.28054741,0.509765625,0.210166178
606.184,0.277614858,0.494140625,0.208211144
606.192,0.274682307,0.490234375,0.207233627
606.2,0.271749756,0.494140625,0.206256109
606.208,0.269794721,0.494140625,0.205278592
606.216,0.26686217,0.494140625,0.205278592
606.224,0.264907136,0.509765625,0.204301075
606.232,0.262952102,0.515625,0.205278592
606.24,0.260997067,0.509765625,0.207233627
606.248,0.258064516,0.509765625,0.209188661
606.256,0.257086999,0.51953125,0.211143695
606.264,0.256109482,0.515625,0.215053763
606.272,0.254154448,0.525390625,0.217986315
606.28,0.254154448,0.53515625,0.2228739
606.288,0.254154448,0.5390625,0.226783969
606.296,0.258064516,0.505859375,0.233626588
606.304,0.264907136,0.525390625,0.240469208
606.312,0.278592375,0.5390625,0.249266862
606.32,0.2971652,0.529296875,0.257086999
606.328,0.323558162,0.53515625,0.265884653
606.336,0.35483871,0.53515625,0.27370479
606.344,0.39198436,0.5390625,0.282502444
606.352,0.432062561,0.529296875,0.290322581
606.36,0.468230694,0.5390625,0.299120235
606.368,0.501466276,0.53515625,0.308895406
606.376,0.537634409,0.5390625,0.31769306
606.384,0.573802542,0.525390625,0.327468231
606.392,0.607038123,0.5390625,0.338220919
606.4,0.636363636,0.564453125,0.348973607
606.408,0.660801564,0.58984375,0.358748778
606.416,0.680351906,0.583984375,0.369501466
606.424,0.69599218,0.62890625,0.379276637
606.432,0.706744868,0.66015625,0.389051808
606.44,0.714565005,0.6640625,0.398826979
606.448,0.717497556,0.634765625,0.407624633
606.456,0.717497556,0.609375,0.417399804
606.464,0.714565005,0.615234375,0.427174976
606.472,0.709677419,0.60546875,0.436950147
606.48,0.701857283,0.595703125,0.447702835
606.488,0.693059629,0.615234375,0.456500489
606.496,0.681329423,0.599609375,0.465298143
606.504,0.667644184,0.560546875,0.47311828
606.512,0.651026393,0.5390625,0.481915934
606.52,0.632453568,0.505859375,0.491691105
606.528,0.611925709,0.46484375,0.501466276
606.536,0.588465298,0.4609375,0.513196481
606.544,0.565004888,0.46484375,0.524926686
606.552,0.542521994,0.470703125,0.537634409
606.56,0.521994135,0.46484375,0.550342131
606.568,0.498533724,0.474609375,0.563049853
606.576,0.475073314,0.4609375,0.576735093
606.584,0.45259042,0.474609375,0.589442815
606.592,0.431085044,0.509765625,0.602150538
606.6,0.411534702,0.685546875,0.613880743
606.608,0.393939394,0.974609375,0.625610948
606.616,0.37829912,1.19921875,0.639296188
606.624,0.365591398,1.234375,0.652981427
606.632,0.355816227,1.2734375,0.666666667
606.64,0.34799609,0.37109375,0.681329423
606.648,0.342130987,-0.0703125,0.695014663
606.656,0.338220919,-0.240234375,0.707722385
606.664,0.336265885,-0.14453125,0.720430108
606.672,0.335288368,-0.05859375,0.73313783
606.68,0.335288368,0.080078125,0.746823069
606.688,0.335288368,0.279296875,0.760508309
606.696,0.336265885,0.349609375,0.775171065
606.704,0.337243402,0.375,0.790811339
606.712,0.338220919,0.384765625,0.805474096
606.72,0.339198436,0.390625,0.82111437
606.728,0.340175953,0.404296875,0.835777126
606.736,0.340175953,0.400390625,0.8514174
606.744,0.340175953,0.375,0.865102639
606.752,0.340175953,0.384765625,0.878787879
606.76,0.340175953,0.400390625,0.891495601
606.768,0.339198436,0.39453125,0.904203324
606.776,0.337243402,0.404296875,0.917888563
606.784,0.33431085,0.390625,0.93255132
606.792,0.331378299,0.384765625,0.946236559
606.8,0.327468231,0.416015625,0.960899316
606.808,0.323558162,0.41015625,0.973607038
606.816,0.319648094,0.41015625,0.987292278
606.824,0.315738025,0.419921875,0.99315738
606.832,0.311827957,0.42578125,1
606.84,0.307917889,0.4453125,1
606.848,0.30400782,0.4609375,1
606.856,0.300097752,0.470703125,1
606.864,0.2971652,0.494140625,1
606.872,0.292277615,0.529296875,1
606.88,0.288367546,0.560546875,1
606.888,0.283479961,0.595703125,1
606.896,0.278592375,0.640625,1
606.904,0.27370479,0.654296875,1
606.912,0.268817204,0.6796875,1
606.92,0.263929619,0.705078125,1
606.928,0.259042033,0.734375,1
606.936,0.254154448,0.759765625,1
606.944,0.250244379,0.76953125,1
606.952,0.248289345,0.740234375,1
606.96,0.246334311,0.708984375,1
606.968,0.244379277,0.67578125,1
606.976,0.241446725,0.650390625,1
606.984,0.239491691,0.619140625,1
606.992,0.237536657,0.595703125,1
607,0.234604106,0.564453125,1
607.008,0.232649071,0.5390625,1
607.016,0.231671554,0.529296875,1
607.024,0.230694037,0.525390625,1
607.032,0.228739003,0.51953125,1
607.04,0.227761486,0.51953125,1
607.048,0.226783969,0.509765625,1
607.056,0.226783969,0.515625,1
607.064,0.226783969,0.515625,1
607.072,0.226783969,0.51953125,1
607.08,0.226783969,0.51953125,1
607.088,0.234604106,0.51953125,1
607.096,0.247311828,0.525390625,1
607.104,0.254154448,0.529296875,1
607.112,0.258064516,0.53515625,1
607.12,0.26001955,0.5390625,1
607.128,0.261974585,0.544921875,1
607.136,0.262952102,0.544921875,1
607.144,0.264907136,0.5390625,1
607.152,0.265884653,0.53515625,1
607.16,0.267839687,0.5390625,1
607.168,0.270772239,0.53515625,1
607.176,0.274682307,0.5390625,1
607.184,0.281524927,0.5390625,1
607.192,0.291300098,0.5390625,1
607.2,0.305962854,0.53515625,1
607.208,0.325513196,0.5390625,1
607.216,0.351906158,0.53515625,1
607.224,0.382209189,0.529296875,1
607.232,0.416422287,0.529296875,1
607.24,0.454545455,0.525390625,1
607.248,0.493646139,0.51953125,1
607.256,0.527859238,0.525390625,1
607.264,0.558162268,0.529296875,1
607.272,0.590420332,0.5390625,1
607.28,0.62170088,0.5390625,1
607.288,0.650048876,0.5703125,1
607.296,0.674486804,0.60546875,1
607.304,0.694037146,0.62890625,1
607.312,0.710654936,0.650390625,1
607.32,0.722385142,0.654296875,1
607.328,0.731182796,0.609375,1
607.336,0.736070381,0.580078125,1
607.344,0.737047898,0.5703125,1
607.352,0.736070381,0.560546875,0.996089932
607.36,0.731182796,0.564453125,0.99315738
607.368,0.725317693,0.580078125,0.979472141
607.376,0.717497556,0.58984375,0.966764418
607.384,0.707722385,0.525390625,0.955034213
607.392,0.69599218,0.494140625,0.943304008
607.4,0.68230694,0.470703125,0.931573803
607.408,0.666666667,0.44921875,0.919843597
607.416,0.649071359,0.439453125,0.907135875
607.424,0.629521017,0.4453125,0.89540567
607.432,0.609970674,0.435546875,0.88172043
607.44,0.589442815,0.42578125,0.869012708
607.448,0.567937439,0.42578125,0.856304985
607.456,0.549364614,0.435546875,0.84457478
607.464,0.532746823,0.439453125,0.832844575
607.472,0.515151515,0.509765625,0.822091887
607.48,0.497556207,0.78515625,0.811339198
607.488,0.481915934,1.08984375,0.80058651
607.496,0.468230694,1.14453125,0.790811339
607.504,0.456500489,1.103515625,0.781036168
607.512,0.446725318,0.869140625,0.771260997
607.52,0.438905181,0.291015625,0.762463343
607.528,0.434017595,-0.025390625,0.754643206
607.536,0.430107527,-0.18359375,0.745845552
607.544,0.428152493,-0.1484375,0.739002933
607.552,0.427174976,-0.064453125,0.732160313
607.56,0.427174976,0.08984375,0.725317693
607.568,0.428152493,0.265625,0.71945259
607.576,0.42913001,0.32421875,0.713587488
607.584,0.431085044,0.345703125,0.707722385
607.592,0.433040078,0.35546875,0.7028348
607.6,0.434017595,0.35546875,0.697947214
607.608,0.434995112,0.365234375,0.693059629
607.616,0.43597263,0.375,0.68914956
607.624,0.43597263,0.380859375,0.684261975
607.632,0.434995112,0.375,0.680351906
607.64,0.434017595,0.375,0.676441838
607.648,0.432062561,0.375,0.672531769
607.656,0.430107527,0.375,0.668621701
607.664,0.428152493,0.380859375,0.664711632
607.672,0.426197458,0.390625,0.661779081
607.68,0.423264907,0.39453125,0.657869013
607.688,0.420332356,0.400390625,0.655913978
607.696,0.417399804,0.404296875,0.652981427
607.704,0.414467253,0.416015625,0.650048876
607.712,0.410557185,0.416015625,0.647116325
607.72,0.407624633,0.435546875,0.644183773
607.728,0.403714565,0.4453125,0.642228739
607.736,0.399804497,0.46484375,0.639296188
607.744,0.395894428,0.494140625,0.637341153
607.752,0.39198436,0.529296875,0.635386119
607.76,0.389051808,0.5703125,0.633431085
607.768,0.38514174,0.609375,0.631476051
607.776,0.381231672,0.654296875,0.629521017
607.784,0.377321603,0.685546875,0.6285435
607.792,0.373411535,0.724609375,0.626588465
607.8,0.368523949,0.744140625,0.625610948
607.808,0.364613881,0.765625,0.623655914
607.816,0.360703812,0.775390625,0.622678397
607.824,0.356793744,0.75,0.620723363
607.832,0.351906158,0.73046875,0.617790811
607.84,0.348973607,0.69921875,0.615835777
607.848,0.345063539,0.654296875,0.611925709
607.856,0.343108504,0.619140625,0.60801564
607.864,0.34115347,0.583984375,0.603128055
607.872,0.338220919,0.5546875,0.599217986
607.88,0.335288368,0.529296875,0.593352884
607.888,0.332355816,0.515625,0.588465298
607.896,0.329423265,0.5,0.581622678
607.904,0.327468231,0.484375,0.574780059
607.912,0.324535679,0.484375,0.565004888
607.92,0.321603128,0.48046875,0.556207234
607.928,0.318670577,0.470703125,0.54740958
607.936,0.316715543,0.46484375,0.538611926
607.944,0.315738025,0.455078125,0.529814272
607.952,0.314760508,0.455078125,0.521016618
607.96,0.313782991,0.4609375,0.512218964
607.968,0.312805474,0.470703125,0.50342131
607.976,0.31085044,0.470703125,0.494623656
607.984,0.309872923,0.470703125,0.484848485
607.992,0.307917889,0.48046875,0.477028348
608,0.305962854,0.48046875,0.468230694
608.008,0.303030303,0.484375,0.460410557
608.016,0.301075269,0.484375,0.453567937
608.024,0.299120235,0.490234375,0.447702835
608.032,0.298142717,0.484375,0.441837732
608.04,0.299120235,0.490234375,0.436950147
608.048,0.301075269,0.484375,0.432062561
608.056,0.304985337,0.490234375,0.430107527
608.064,0.311827957,0.490234375,0.427174976
608.072,0.322580645,0.494140625,0.426197458
608.08,0.340175953,0.494140625,0.425219941
608.088,0.362658847,0.494140625,0.425219941
608.096,0.39198436,0.494140625,0.424242424
608.104,0.424242424,0.494140625,0.423264907
608.112,0.461388074,0.494140625,0.423264907
608.12,0.499511241,0.490234375,0.423264907
608.128,0.537634409,0.494140625,0.424242424
608.136,0.573802542,0.515625,0.425219941
608.144,0.60801564,0.55078125,0.427174976
608.152,0.634408602,0.595703125,0.428152493
608.16,0.654936461,0.619140625,0.430107527
608.168,0.674486804,0.640625,0.432062561
608.176,0.692082111,0.62890625,0.434017595
608.184,0.706744868,0.583984375,0.434995112
608.192,0.716520039,0.5546875,0.43597263
608.2,0.723362659,0.53515625,0.436950147
608.208,0.727272727,0.51953125,0.437927664
608.216,0.728250244,0.53515625,0.437927664
608.224,0.72629521,0.5546875,0.437927664
608.232,0.722385142,0.53515625,0.436950147
608.24,0.716520039,0.490234375,0.436950147
608.248,0.708699902,0.46484375,0.43597263
608.256,0.698924731,0.4453125,0.434995112
608.264,0.687194526,0.42578125,0.434995112
608.272,0.674486804,0.419921875,0.434017595
608.28,0.65884653,0.419921875,0.432062561
608.288,0.641251222,0.42578125,0.430107527
608.296,0.623655914,0.42578125,0.428152493
608.304,0.604105572,0.4296875,0.425219941
608.312,0.583577713,0.435546875,0.423264907
608.32,0.563049853,0.435546875,0.421309873
608.328,0.542521994,0.53515625,0.419354839
608.336,0.522971652,0.82421875,0.418377322
608.344,0.504398827,1.08984375,0.416422287
608.352,0.487781036,1.119140625,0.41544477
608.36,0.474095797,1.07421875,0.414467253
608.368,0.461388074,0.759765625,0.413489736
608.376,0.448680352,0.255859375,0.412512219
608.384,0.438905181,-0.0390625,0.411534702
608.392,0.430107527,-0.1796875,0.410557185
608.4,0.423264907,-0.138671875,0.409579668
608.408,0.418377322,-0.0703125,0.409579668
608.416,0.414467253,0.095703125,0.408602151
608.424,0.412512219,0.265625,0.408602151
608.432,0.411534702,0.310546875,0.409579668
608.44,0.410557185,0.330078125,0.409579668
608.448,0.410557185,0.330078125,0.410557185
608.456,0.411534702,0.349609375,0.411534702
608.464,0.411534702,0.349609375,0.412512219
608.472,0.412512219,0.35546875,0.413489736
608.48,0.413489736,0.35546875,0.41544477
608.488,0.413489736,0.365234375,0.417399804
608.496,0.414467253,0.35546875,0.419354839
608.504,0.413489736,0.35546875,0.421309873
608.512,0.412512219,0.35546875,0.424242424
608.52,0.411534702,0.359375,0.426197458
608.528,0.410557185,0.365234375,0.428152493
608.536,0.408602151,0.37109375,0.430107527
608.544,0.405669599,0.375,0.433040078
608.552,0.403714565,0.380859375,0.43597263
608.56,0.401759531,0.390625,0.438905181
608.568,0.398826979,0.39453125,0.440860215
608.576,0.395894428,0.404296875,0.443792766
608.584,0.392961877,0.42578125,0.445747801
608.592,0.389051808,0.4609375,0.448680352
608.6,0.386119257,0.48046875,0.451612903
608.608,0.382209189,0.51953125,0.453567937
608.616,0.37829912,0.5546875,0.456500489
608.624,0.374389052,0.599609375,0.45943304
608.632,0.370478983,0.634765625,0.462365591
608.64,0.366568915,0.67578125,0.465298143
608.648,0.362658847,0.6953125,0.467253177
608.656,0.359726295,0.720703125,0.470185728
608.664,0.355816227,0.73046875,0.471163245
608.672,0.351906158,0.734375,0.47311828
608.68,0.34799609,0.724609375,0.474095797
608.688,0.344086022,0.69921875,0.475073314
608.696,0.340175953,0.6640625,0.474095797
608.704,0.336265885,0.619140625,0.47311828
608.712,0.333333333,0.58984375,0.471163245
608.72,0.330400782,0.560546875,0.470185728
608.728,0.327468231,0.529296875,0.46627566
608.736,0.324535679,0.505859375,0.463343109
608.744,0.321603128,0.484375,0.458455523
608.752,0.319648094,0.474609375,0.454545455
608.76,0.31769306,0.470703125,0.447702835
608.768,0.315738025,0.46484375,0.440860215
608.776,0.314760508,0.455078125,0.433040078
608.784,0.312805474,0.4453125,0.425219941
608.792,0.31085044,0.4453125,0.416422287
608.8,0.308895406,0.4453125,0.407624633
608.808,0.307917889,0.439453125,0.397849462
608.816,0.305962854,0.4453125,0.388074291
608.824,0.30400782,0.44921875,0.379276637
608.832,0.302052786,0.4609375,0.370478983
608.84,0.301075269,0.470703125,0.361681329
608.848,0.300097752,0.470703125,0.353861193
608.856,0.299120235,0.474609375,0.347018573
608.864,0.298142717,0.470703125,0.339198436
608.872,0.2971652,0.470703125,0.332355816
608.88,0.295210166,0.470703125,0.326490714
608.888,0.294232649,0.474609375,0.320625611
608.896,0.294232649,0.484375,0.315738025
608.904,0.295210166,0.48046875,0.311827957
608.912,0.300097752,0.484375,0.307917889
608.92,0.307917889,0.48046875,0.304985337
608.928,0.321603128,0.490234375,0.302052786
608.936,0.34115347,0.474609375,0.301075269
608.944,0.366568915,0.470703125,0.300097752
608.952,0.39198436,0.474609375,0.300097752
608.96,0.419354839,0.490234375,0.301075269
608.968,0.45259042,0.484375,0.302052786
608.976,0.488758553,0.490234375,0.30400782
608.984,0.525904203,0.494140625,0.305962854
608.992,0.562072336,0.494140625,0.307917889
609,0.595307918,0.48046875,0.308895406
609.008,0.625610948,0.494140625,0.309872923
609.016,0.651026393,0.505859375,0.31085044
609.024,0.672531769,0.51953125,0.312805474
609.032,0.68914956,0.5546875,0.313782991
609.04,0.7028348,0.595703125,0.315738025
609.048,0.709677419,0.609375,0.316715543
609.056,0.712609971,0.640625,0.31769306
609.064,0.714565005,0.615234375,0.318670577
609.072,0.714565005,0.58984375,0.318670577
609.08,0.711632454,0.55078125,0.318670577
609.088,0.707722385,0.53515625,0.318670577
609.096,0.700879765,0.525390625,0.31769306
609.104,0.692082111,0.53515625,0.31769306
609.112,0.681329423,0.560546875,0.314760508
609.12,0.667644184,0.53515625,0.312805474
609.128,0.652981427,0.484375,0.308895406
609.136,0.637341153,0.4609375,0.305962854
609.144,0.619745846,0.439453125,0.303030303
609.152,0.601173021,0.42578125,0.299120235
609.16,0.583577713,0.42578125,0.296187683
609.168,0.56402737,0.4296875,0.293255132
609.176,0.542521994,0.435546875,0.289345064
609.184,0.521994135,0.42578125,0.286412512
609.192,0.501466276,0.42578125,0.282502444
609.2,0.481915934,0.42578125,0.278592375
609.208,0.463343109,0.439453125,0.274682307
609.216,0.446725318,0.5703125,0.270772239
609.224,0.433040078,0.869140625,0.267839687
609.232,0.421309873,1.109375,0.264907136
609.24,0.411534702,1.119140625,0.260997067
609.248,0.404692082,1.07421875,0.258064516
609.256,0.399804497,0.669921875,0.255131965
609.264,0.396871945,0.23046875,0.253176931
609.272,0.394916911,-0.064453125,0.250244379
609.28,0.393939394,-0.173828125,0.247311828
609.288,0.393939394,-0.109375,0.245356794
609.296,0.393939394,-0.029296875,0.242424242
609.304,0.395894428,0.150390625,0.240469208
609.312,0.396871945,0.291015625,0.238514174
609.32,0.397849462,0.330078125,0.237536657
609.328,0.398826979,0.3359375,0.23655914
609.336,0.399804497,0.35546875,0.235581623
609.344,0.399804497,0.359375,0.234604106
609.352,0.400782014,0.37109375,0.233626588
609.36,0.399804497,0.37109375,0.232649071
609.368,0.399804497,0.375,0.231671554
609.376,0.397849462,0.37109375,0.230694037
609.384,0.396871945,0.375,0.22971652
609.392,0.393939394,0.375,0.228739003
609.4,0.39198436,0.37109375,0.227761486
609.408,0.389051808,0.375,0.226783969
609.416,0.38514174,0.380859375,0.226783969
609.424,0.382209189,0.39453125,0.225806452
609.432,0.37829912,0.400390625,0.225806452
609.44,0.374389052,0.404296875,0.225806452
609.448,0.3714565,0.39453125,0.225806452
609.456,0.368523949,0.419921875,0.225806452
609.464,0.364613881,0.42578125,0.225806452
609.472,0.360703812,0.439453125,0.225806452
609.48,0.356793744,0.474609375,0.225806452
609.488,0.351906158,0.515625,0.225806452
609.496,0.34799609,0.53515625,0.225806452
609.504,0.343108504,0.560546875,0.225806452
609.512,0.339198436,0.58984375,0.226783969
609.52,0.33431085,0.650390625,0.226783969
609.528,0.329423265,0.689453125,0.226783969
609.536,0.325513196,0.708984375,0.226783969
609.544,0.320625611,0.73046875,0.226783969
609.552,0.31769306,0.759765625,0.227761486
609.56,0.315738025,0.76953125,0.226783969
609.568,0.312805474,0.744140625,0.225806452
609.576,0.309872923,0.708984375,0.223851417
609.584,0.306940371,0.67578125,0.2228739
609.592,0.30400782,0.650390625,0.219941349
609.6,0.302052786,0.60546875,0.217008798
609.608,0.299120235,0.564453125,0.213098729
609.616,0.2971652,0.5390625,0.210166178
609.624,0.294232649,0.515625,0.206256109
609.632,0.292277615,0.5,0.202346041
609.64,0.291300098,0.505859375,0.198435973
609.648,0.290322581,0.474609375,0.195503421
609.656,0.290322581,0.48046875,0.190615836
609.664,0.289345064,0.470703125,0.18572825
609.672,0.288367546,0.474609375,0.180840665
609.68,0.287390029,0.44921875,0.174975562
609.688,0.286412512,0.455078125,0.171065494
609.696,0.285434995,0.44921875,0.168132942
609.704,0.284457478,0.46484375,0.165200391
609.712,0.282502444,0.455078125,0.16226784
609.72,0.28054741,0.470703125,0.161290323
609.728,0.278592375,0.48046875,0.159335288
609.736,0.276637341,0.470703125,0.158357771
609.744,0.274682307,0.470703125,0.158357771
609.752,0.27370479,0.474609375,0.159335288
609.76,0.272727273,0.484375,0.161290323
609.768,0.271749756,0.470703125,0.164222874
609.776,0.270772239,0.470703125,0.167155425
609.784,0.270772239,0.474609375,0.171065494
609.792,0.272727273,0.484375,0.174975562
609.8,0.278592375,0.494140625,0.180840665
609.808,0.288367546,0.505859375,0.186705767
609.816,0.303030303,0.515625,0.194525904
609.824,0.324535679,0.505859375,0.203323558
609.832,0.351906158,0.490234375,0.213098729
609.84,0.38514174,0.48046875,0.223851417
609.848,0.416422287,0.484375,0.234604106
609.856,0.447702835,0.494140625,0.245356794
609.864,0.483870968,0.509765625,0.256109482
609.872,0.521016618,0.515625,0.26686217
609.88,0.558162268,0.515625,0.278592375
609.888,0.591397849,0.505859375,0.291300098
609.896,0.620723363,0.515625,0.30400782
609.904,0.64516129,0.529296875,0.316715543
609.912,0.66568915,0.55078125,0.330400782
609.92,0.681329423,0.583984375,0.344086022
609.928,0.693059629,0.609375,0.357771261
609.936,0.700879765,0.615234375,0.3714565
609.944,0.704789834,0.615234375,0.383186706
609.952,0.704789834,0.599609375,0.395894428
609.96,0.701857283,0.583984375,0.406647116
609.968,0.697947214,0.57421875,0.418377322
609.976,0.691104594,0.5703125,0.430107527
609.984,0.683284457,0.58984375,0.441837732
609.992,0.672531769,0.599609375,0.453567937
610,0.660801564,0.564453125,0.46627566
610.008,0.646138807,0.484375,0.477028348
610.016,0.630498534,0.470703125,0.487781036
610.024,0.612903226,0.439453125,0.498533724
610.032,0.594330401,0.4296875,0.508308895
610.04,0.573802542,0.44921875,0.520039101
610.048,0.555229717,0.439453125,0.531769306
610.056,0.536656891,0.4453125,0.544477028
610.064,0.517106549,0.419921875,0.557184751
610.072,0.49657869,0.42578125,0.57086999
610.08,0.476050831,0.435546875,0.58455523
610.088,0.455522972,0.44921875,0.599217986
610.096,0.436950147,0.5390625,0.612903226
610.104,0.420332356,0.76953125,0.626588465
610.112,0.405669599,1.08984375,0.640273705
610.12,0.393939394,1.189453125,0.653958944
610.128,0.384164223,1.259765625,0.667644184
610.136,0.377321603,0.85546875,0.68230694
610.144,0.372434018,0.14453125,0.696969697
610.152,0.369501466,-0.205078125,0.713587488
610.16,0.367546432,-0.28515625,0.729227761
610.168,0.366568915,-0.154296875,0.744868035
610.176,0.367546432,-0.048828125,0.760508309
610.184,0.367546432,0.14453125,0.775171065
610.192,0.369501466,0.28515625,0.789833822
610.2,0.370478983,0.3359375,0.805474096
610.208,0.372434018,0.35546875,0.82111437
610.216,0.373411535,0.359375,0.838709677
610.224,0.373411535,0.37109375,0.855327468
610.232,0.373411535,0.35546875,0.872922776
610.24,0.373411535,0.349609375,0.890518084
610.248,0.373411535,0.359375,0.907135875
610.256,0.372434018,0.35546875,0.924731183
610.264,0.372434018,0.359375,0.940371457
610.272,0.370478983,0.35546875,0.956989247
610.28,0.369501466,0.37109375,0.971652004
610.288,0.366568915,0.380859375,0.987292278
610.296,0.363636364,0.37109375,0.994134897
610.304,0.360703812,0.375,1
610.312,0.357771261,0.37109375,1
610.32,0.353861193,0.384765625,1
610.328,0.350928641,0.39453125,1
610.336,0.347018573,0.39453125,1
610.344,0.344086022,0.400390625,1
610.352,0.34115347,0.42578125,1
610.36,0.337243402,0.4453125,1
610.368,0.33431085,0.46484375,1
610.376,0.330400782,0.509765625,1
610.384,0.326490714,0.5390625,1
610.392,0.323558162,0.5546875,1
610.4,0.319648094,0.615234375,1
610.408,0.316715543,0.64453125,1
610.416,0.313782991,0.6796875,1
610.424,0.31085044,0.69921875,1
610.432,0.307917889,0.720703125,1
610.44,0.305962854,0.73046875,1
610.448,0.30400782,0.720703125,1
610.456,0.30400782,0.708984375,1
610.464,0.302052786,0.6796875,1
610.472,0.301075269,0.650390625,1
610.48,0.299120235,0.615234375,1
610.488,0.298142717,0.5703125,1
610.496,0.298142717,0.53515625,1
610.504,0.2971652,0.505859375,1
610.512,0.296187683,0.5,1
610.52,0.295210166,0.48046875,1
610.528,0.294232649,0.470703125,1
610.536,0.293255132,0.48046875,1
610.544,0.293255132,0.470703125,1
610.552,0.293255132,0.470703125,1
610.56,0.292277615,0.474609375,1
610.568,0.291300098,0.470703125,1
610.576,0.290322581,0.484375,1
610.584,0.289345064,0.48046875,1
610.592,0.288367546,0.474609375,1
610.6,0.287390029,0.484375,1
610.608,0.286412512,0.494140625,1
610.616,0.284457478,0.505859375,1
610.624,0.283479961,0.505859375,1
610.632,0.282502444,0.515625,1
610.64,0.28054741,0.51953125,1
610.648,0.28054741,0.509765625,1
610.656,0.28054741,0.51953125,1
610.664,0.279569892,0.51953125,1
610.672,0.279569892,0.525390625,1
610.68,0.281524927,0.51953125,1
610.688,0.285434995,0.51953125,1
610.696,0.292277615,0.515625,1
610.704,0.304985337,0.515625,1
610.712,0.322580645,0.505859375,1
610.72,0.346041056,0.51953125,1
610.728,0.374389052,0.515625,1
610.736,0.406647116,0.515625,1
610.744,0.436950147,0.515625,1
610.752,0.465298143,0.529296875,1
610.76,0.498533724,0.5390625,1
610.768,0.532746823,0.57421875,1
610.776,0.565004888,0.609375,1
610.784,0.594330401,0.625,1
610.792,0.618768328,0.640625,1
610.8,0.640273705,0.625,1
610.808,0.656891496,0.599609375,1
610.816,0.668621701,0.583984375,1
610.824,0.676441838,0.564453125,1
610.832,0.681329423,0.564453125,1
610.84,0.681329423,0.5703125,1
610.848,0.679374389,0.58984375,1
610.856,0.674486804,0.5546875,1
610.864,0.668621701,0.494140625,1
610.872,0.659824047,0.48046875,1
610.88,0.649071359,0.4609375,1
610.888,0.637341153,0.4453125,0.999022483
610.896,0.622678397,0.435546875,0.998044966
610.904,0.606060606,0.42578125,0.984359726
610.912,0.586510264,0.4296875,0.971652004
610.92,0.566959922,0.435546875,0.959921799
610.928,0.544477028,0.42578125,0.947214076
610.936,0.521994135,0.435546875,0.935483871
610.944,0.501466276,0.44921875,0.923753666
610.952,0.481915934,0.60546875,0.91202346
610.96,0.461388074,0.9140625,0.901270772
610.968,0.439882698,1.134765625,0.890518084
610.976,0.419354839,1.099609375,0.880742913
610.984,0.400782014,1.134765625,0.870967742
610.992,0.383186706,0.58984375,0.861192571
611,0.368523949,0.111328125,0.8514174
611.008,0.355816227,-0.1640625,0.841642229
611.016,0.346041056,-0.21875,0.831867058
611.024,0.338220919,-0.12890625,0.822091887
611.032,0.333333333,-0.01953125,0.811339198
611.04,0.329423265,0.169921875,0.801564027
611.048,0.328445748,0.30078125,0.790811339
611.056,0.329423265,0.3359375,0.781036168
611.064,0.330400782,0.345703125,0.77028348
611.072,0.332355816,0.35546875,0.760508309
611.08,0.335288368,0.37109375,0.750733138
611.088,0.338220919,0.375,0.740957967
611.096,0.34115347,0.375,0.730205279
611.104,0.343108504,0.375,0.71945259
611.112,0.345063539,0.380859375,0.707722385
611.12,0.347018573,0.390625,0.69599218
611.128,0.34799609,0.39453125,0.684261975
611.136,0.348973607,0.400390625,0.673509286
611.144,0.348973607,0.384765625,0.662756598
611.152,0.348973607,0.390625,0.65200391
611.16,0.348973607,0.39453125,0.640273705
611.168,0.347018573,0.400390625,0.6285435
611.176,0.346041056,0.404296875,0.616813294
611.184,0.34115347,0.416015625,0.604105572
611.192,0.33431085,0.42578125,0.591397849
611.2,0.329423265,0.435546875,0.578690127
611.208,0.325513196,0.455078125,0.565982405
611.216,0.321603128,0.48046875,0.553274682
611.224,0.31769306,0.515625,0.542521994
611.232,0.313782991,0.544921875,0.531769306
611.24,0.31085044,0.580078125,0.521994135
611.248,0.307917889,0.615234375,0.512218964
611.256,0.305962854,0.654296875,0.502443793
611.264,0.303030303,0.689453125,0.492668622
611.272,0.300097752,0.724609375,0.481915934
611.28,0.296187683,0.744140625,0.472140762
611.288,0.293255132,0.75,0.463343109
611.296,0.289345064,0.75,0.453567937
611.304,0.286412512,0.740234375,0.444770283
611.312,0.282502444,0.705078125,0.434995112
611.32,0.279569892,0.669921875,0.424242424
611.328,0.275659824,0.634765625,0.413489736
611.336,0.272727273,0.595703125,0.400782014
611.344,0.270772239,0.560546875,0.388074291
611.352,0.269794721,0.5390625,0.372434018
611.36,0.26686217,0.51953125,0.357771261
611.368,0.264907136,0.515625,0.342130987
611.376,0.262952102,0.490234375,0.325513196
611.384,0.260997067,0.48046875,0.31085044
611.392,0.259042033,0.474609375,0.296187683
611.4,0.257086999,0.470703125,0.282502444
611.408,0.255131965,0.470703125,0.268817204
611.416,0.253176931,0.46484375,0.253176931
611.424,0.252199413,0.46484375,0.238514174
611.432,0.250244379,0.470703125,0.2228739
611.44,0.248289345,0.470703125,0.207233627
611.448,0.246334311,0.470703125,0.193548387
611.456,0.246334311,0.48046875,0.179863148
611.464,0.244379277,0.474609375,0.169110459
611.472,0.242424242,0.484375,0.157380254
611.48,0.239491691,0.474609375,0.146627566
611.488,0.237536657,0.484375,0.135874878
611.496,0.234604106,0.490234375,0.12512219
611.504,0.232649071,0.490234375,0.115347019
611.512,0.230694037,0.490234375,0.106549365
611.52,0.230694037,0.494140625,0.098729228
611.528,0.233626588,0.494140625,0.091886608
611.536,0.239491691,0.494140625,0.085043988
611.544,0.249266862,0.494140625,0.08113392
611.552,0.261974585,0.494140625,0.076246334
611.56,0.282502444,0.494140625,0.0742913
611.568,0.308895406,0.494140625,0.071358749
611.576,0.342130987,0.490234375,0.070381232
611.584,0.380254154,0.494140625,0.069403715
611.592,0.421309873,0.509765625,0.068426197
611.6,0.464320626,0.529296875,0.068426197
611.608,0.507331378,0.564453125,0.069403715
611.616,0.54740958,0.595703125,0.069403715
611.624,0.583577713,0.625,0.070381232
611.632,0.615835777,0.634765625,0.071358749
611.64,0.642228739,0.599609375,0.072336266
611.648,0.661779081,0.560546875,0.073313783
611.656,0.674486804,0.5390625,0.073313783
611.664,0.686217009,0.529296875,0.0742913
611.672,0.695014663,0.51953125,0.0742913
611.68,0.699902248,0.5390625,0.073313783
611.688,0.701857283,0.5546875,0.072336266
611.696,0.700879765,0.51953125,0.071358749
611.704,0.696969697,0.474609375,0.069403715
611.712,0.690127077,0.4453125,0.068426197
611.72,0.681329423,0.42578125,0.066471163
611.728,0.670576735,0.404296875,0.064516129
611.736,0.657869013,0.41015625,0.062561095
611.744,0.644183773,0.404296875,0.060606061
611.752,0.629521017,0.41015625,0.058651026
611.76,0.610948192,0.404296875,0.055718475
611.768,0.590420332,0.404296875,0.053763441
611.776,0.568914956,0.416015625,0.051808407
611.784,0.544477028,0.435546875,0.049853372
611.792,0.519061584,0.609375,0.047898338
611.8,0.493646139,0.9453125,0.045943304
611.808,0.468230694,1.119140625,0.04398827
611.816,0.443792766,1.0703125,0.042033236
611.824,0.421309873,1.07421875,0.040078201
611.832,0.400782014,0.55078125,0.039100684
611.84,0.382209189,0.15625,0.03714565
611.848,0.368523949,-0.119140625,0.036168133
611.856,0.357771261,-0.205078125,0.035190616
611.864,0.348973607,-0.138671875,0.034213099
611.872,0.34115347,-0.03515625,0.034213099
611.88,0.335288368,0.15625,0.034213099
611.888,0.332355816,0.279296875,0.035190616
611.896,0.330400782,0.3046875,0.035190616
611.904,0.330400782,0.32421875,0.035190616
611.912,0.331378299,0.330078125,0.035190616
611.92,0.333333333,0.33984375,0.035190616
611.928,0.336265885,0.345703125,0.035190616
611.936,0.339198436,0.35546875,0.036168133
611.944,0.342130987,0.35546875,0.03714565
611.952,0.345063539,0.35546875,0.039100684
611.96,0.347018573,0.359375,0.040078201
611.968,0.348973607,0.35546875,0.041055718
611.976,0.349951124,0.359375,0.042033236
611.984,0.349951124,0.35546875,0.04398827
611.992,0.349951124,0.35546875,0.044965787
612,0.348973607,0.365234375,0.046920821
612.008,0.34799609,0.365234375,0.048875855
612.016,0.346041056,0.37109375,0.05083089
612.024,0.344086022,0.384765625,0.052785924
612.032,0.342130987,0.400390625,0.054740958
612.04,0.340175953,0.416015625,0.057673509
612.048,0.338220919,0.4296875,0.059628543
612.056,0.336265885,0.46484375,0.062561095
612.064,0.33431085,0.494140625,0.064516129
612.072,0.331378299,0.53515625,0.06744868
612.08,0.329423265,0.5703125,0.069403715
612.088,0.326490714,0.615234375,0.072336266
612.096,0.323558162,0.64453125,0.0742913
612.104,0.320625611,0.685546875,0.077223851
612.112,0.31769306,0.708984375,0.079178886
612.12,0.314760508,0.740234375,0.08113392
612.128,0.311827957,0.75,0.084066471
612.136,0.308895406,0.75,0.085043988
612.144,0.305962854,0.724609375,0.086999022
612.152,0.30400782,0.69921875,0.086999022
612.16,0.302052786,0.654296875,0.08797654
612.168,0.299120235,0.625,0.08797654
612.176,0.2971652,0.58984375,0.08797654
612.184,0.295210166,0.564453125,0.086999022
612.192,0.293255132,0.529296875,0.086021505
612.2,0.292277615,0.509765625,0.084066471
612.208,0.290322581,0.490234375,0.082111437
612.216,0.289345064,0.48046875,0.078201369
612.224,0.288367546,0.48046875,0.0742913
612.232,0.286412512,0.474609375,0.070381232
612.24,0.285434995,0.470703125,0.065493646
612.248,0.285434995,0.470703125,0.061583578
612.256,0.285434995,0.46484375,0.057673509
612.264,0.285434995,0.4609375,0.054740958
612.272,0.284457478,0.470703125,0.05083089
612.28,0.283479961,0.4609375,0.046920821
612.288,0.283479961,0.46484375,0.043010753
612.296,0.282502444,0.470703125,0.039100684
612.304,0.282502444,0.484375,0.035190616
612.312,0.281524927,0.505859375,0.032258065
612.32,0.281524927,0.560546875,0.03030303
612.328,0.282502444,0.689453125,0.029325513
612.336,0.283479961,0.958984375,0.028347996
612.344,0.286412512,1.1640625,0.028347996
612.352,0.290322581,1.314453125,0.028347996
612.36,0.295210166,1.5,0.029325513
612.368,0.302052786,1.5,0.03030303
612.376,0.313782991,1.5,0.032258065
612.384,0.329423265,1.5,0.035190616
612.392,0.351906158,1.5,0.039100684
612.4,0.381231672,1.5,0.043010753
612.408,0.417399804,1.5,0.046920821
612.416,0.458455523,1.419921875,0.05083089
612.424,0.50342131,1.080078125,0.055718475
612.432,0.549364614,0.984375,0.059628543
612.44,0.589442815,0.9140625,0.064516129
612.448,0.622678397,0.64453125,0.070381232
612.456,0.657869013,0.330078125,0.075268817
612.464,0.690127077,0.044921875,0.08113392
612.472,0.716520039,-0.099609375,0.086021505
612.48,0.737047898,-0.12890625,0.090909091
612.488,0.751710655,-0.099609375,0.095796676
612.496,0.760508309,-0.07421875,0.101661779
612.504,0.76344086,-0.044921875,0.105571848
612.512,0.76344086,-0.0390625,0.109481916
612.52,0.758553275,-0.0703125,0.113391984
612.528,0.751710655,-0.09375,0.117302053
612.536,0.740957967,-0.119140625,0.120234604
612.544,0.730205279,-0.1484375,0.122189638
612.552,0.716520039,-0.16015625,0.124144673
612.56,0.701857283,-0.1484375,0.126099707
612.568,0.684261975,-0.14453125,0.128054741
612.576,0.664711632,-0.234375,0.129032258
612.584,0.644183773,-0.294921875,0.130009775
612.592,0.62170088,-0.34375,0.130987292
612.6,0.598240469,-0.388671875,0.130987292
612.608,0.572825024,-0.423828125,0.130987292
612.616,0.54740958,-0.458984375,0.130009775
612.624,0.521016618,-0.484375,0.130009775
612.632,0.495601173,-0.498046875,0.130009775
612.64,0.47311828,-0.498046875,0.130009775
612.648,0.453567937,-0.498046875,0.130009775
612.656,0.432062561,-0.498046875,0.130009775
612.664,0.411534702,-0.484375,0.130987292
612.672,0.392961877,-0.439453125,0.131964809
612.68,0.376344086,-0.388671875,0.132942326
612.688,0.361681329,-0.32421875,0.133919844
612.696,0.349951124,-0.25390625,0.136852395
612.704,0.34115347,-0.1640625,0.138807429
612.712,0.33431085,-0.083984375,0.14173998
612.72,0.330400782,-0.00390625,0.144672532
612.728,0.327468231,0.064453125,0.1485826
612.736,0.327468231,0.140625,0.152492669
612.744,0.328445748,0.205078125,0.157380254
612.752,0.330400782,0.265625,0.161290323
612.76,0.332355816,0.32421875,0.166177908
612.768,0.33431085,0.375,0.171065494
612.776,0.336265885,0.419921875,0.175953079
612.784,0.338220919,0.46484375,0.180840665
612.792,0.340175953,0.5,0.18572825
612.8,0.34115347,0.53515625,0.190615836
612.808,0.34115347,0.560546875,0.195503421
612.816,0.342130987,0.580078125,0.200391007
612.824,0.342130987,0.58984375,0.204301075
612.832,0.34115347,0.609375,0.208211144
612.84,0.34115347,0.625,0.211143695
612.848,0.340175953,0.62890625,0.214076246
612.856,0.339198436,0.634765625,0.216031281
612.864,0.337243402,0.634765625,0.217986315
612.872,0.335288368,0.640625,0.218963832
612.88,0.332355816,0.64453125,0.219941349
612.888,0.329423265,0.650390625,0.220918866
612.896,0.326490714,0.654296875,0.221896383
612.904,0.322580645,0.66015625,0.221896383
612.912,0.318670577,0.66015625,0.2228739
612.92,0.314760508,0.6640625,0.221896383
612.928,0.309872923,0.66015625,0.221896383
612.936,0.305962854,0.66015625,0.220918866
612.944,0.302052786,0.66015625,0.218963832
612.952,0.299120235,0.669921875,0.217986315
612.96,0.294232649,0.66015625,0.216031281
612.968,0.289345064,0.66015625,0.215053763
612.976,0.284457478,0.654296875,0.214076246
612.984,0.279569892,0.654296875,0.213098729
612.992,0.274682307,0.650390625,0.212121212
613,0.269794721,0.64453125,0.211143695
613.008,0.26686217,0.650390625,0.211143695
613.016,0.263929619,0.650390625,0.211143695
613.024,0.262952102,0.634765625,0.211143695
613.032,0.263929619,0.634765625,0.212121212
613.04,0.26686217,0.634765625,0.213098729
613.048,0.270772239,0.62890625,0.214076246
613.056,0.277614858,0.634765625,0.216031281
613.064,0.285434995,0.625,0.217008798
613.072,0.295210166,0.625,0.218963832
613.08,0.305962854,0.615234375,0.221896383
613.088,0.31769306,0.615234375,0.223851417
613.096,0.328445748,0.609375,0.226783969
613.104,0.338220919,0.615234375,0.22971652
613.112,0.347018573,0.60546875,0.232649071
613.12,0.351906158,0.609375,0.235581623
613.128,0.35483871,0.609375,0.238514174
613.136,0.35483871,0.60546875,0.241446725
613.144,0.353861193,0.595703125,0.24340176
613.152,0.349951124,0.599609375,0.245356794
613.16,0.344086022,0.595703125,0.247311828
613.168,0.335288368,0.599609375,0.248289345
613.176,0.325513196,0.58984375,0.250244379
613.184,0.313782991,0.58984375,0.251221896
613.192,0.302052786,0.583984375,0.252199413
613.2,0.289345064,0.580078125,0.253176931
613.208,0.278592375,0.580078125,0.253176931
613.216,0.26686217,0.57421875,0.254154448
613.224,0.257086999,0.583984375,0.255131965
613.232,0.252199413,0.580078125,0.255131965
613.24,0.253176931,0.580078125,0.255131965
613.248,0.251221896,0.57421875,0.256109482
613.256,0.248289345,0.57421875,0.256109482
613.264,0.244379277,0.5703125,0.256109482
613.272,0.240469208,0.57421875,0.257086999
613.28,0.238514174,0.564453125,0.257086999
613.288,0.23655914,0.560546875,0.257086999
613.296,0.23655914,0.560546875,0.257086999
613.304,0.23655914,0.560546875,0.257086999
613.312,0.23655914,0.564453125,0.257086999
613.32,0.237536657,0.58984375,0.257086999
613.328,0.238514174,0.615234375,0.257086999
613.336,0.239491691,0.64453125,0.258064516
613.344,0.240469208,0.6640625,0.259042033
613.352,0.242424242,0.6796875,0.26001955
613.36,0.244379277,0.650390625,0.260997067
613.368,0.245356794,0.62890625,0.260997067
613.376,0.246334311,0.609375,0.261974585
613.384,0.247311828,0.58984375,0.262952102
613.392,0.248289345,0.583984375,0.263929619
613.4,0.248289345,0.599609375,0.263929619
613.408,0.249266862,0.609375,0.264907136
613.416,0.250244379,0.583984375,0.26686217
613.424,0.250244379,0.53515625,0.267839687
613.432,0.251221896,0.509765625,0.268817204
613.44,0.252199413,0.490234375,0.269794721
613.448,0.253176931,0.474609375,0.270772239
613.456,0.253176931,0.470703125,0.271749756
613.464,0.254154448,0.470703125,0.271749756
613.472,0.254154448,0.470703125,0.272727273
613.48,0.254154448,0.470703125,0.272727273
613.488,0.254154448,0.46484375,0.27370479
613.496,0.254154448,0.470703125,0.27370479
613.504,0.253176931,0.5390625,0.27370479
613.512,0.252199413,0.794921875,0.274682307
613.52,0.251221896,1.09375,0.274682307
613.528,0.250244379,1.14453125,0.274682307
613.536,0.249266862,1.1484375,0.274682307
613.544,0.248289345,0.94921875,0.274682307
613.552,0.248289345,0.35546875,0.274682307
613.56,0.247311828,0.025390625,0.274682307
613.568,0.246334311,-0.1484375,0.274682307
613.576,0.244379277,-0.115234375,0.274682307
613.584,0.24340176,-0.0390625,0.274682307
613.592,0.241446725,0.115234375,0.275659824
613.6,0.240469208,0.28515625,0.276637341
613.608,0.239491691,0.330078125,0.277614858
613.616,0.238514174,0.345703125,0.278592375
613.624,0.237536657,0.35546875,0.278592375
613.632,0.237536657,0.365234375,0.279569892
613.64,0.237536657,0.375,0.28054741
613.648,0.237536657,0.37109375,0.28054741
613.656,0.237536657,0.380859375,0.281524927
613.664,0.23655914,0.375,0.282502444
613.672,0.23655914,0.380859375,0.283479961
613.68,0.235581623,0.375,0.285434995
613.688,0.235581623,0.384765625,0.286412512
613.696,0.234604106,0.375,0.287390029
613.704,0.234604106,0.384765625,0.287390029
613.712,0.234604106,0.384765625,0.288367546
613.72,0.234604106,0.39453125,0.289345064
613.728,0.234604106,0.39453125,0.289345064
613.736,0.235581623,0.400390625,0.290322581
613.744,0.23655914,0.41015625,0.290322581
613.752,0.237536657,0.435546875,0.291300098
613.76,0.237536657,0.44921875,0.292277615
613.768,0.237536657,0.470703125,0.293255132
613.776,0.237536657,0.490234375,0.294232649
613.784,0.237536657,0.525390625,0.295210166
613.792,0.237536657,0.564453125,0.296187683
613.8,0.237536657,0.599609375,0.296187683
613.808,0.237536657,0.62890625,0.2971652
613.816,0.237536657,0.6796875,0.2971652
613.824,0.238514174,0.720703125,0.298142717
613.832,0.238514174,0.75,0.298142717
613.84,0.239491691,0.76953125,0.298142717
613.848,0.240469208,0.7890625,0.299120235
613.856,0.240469208,0.794921875,0.299120235
613.864,0.240469208,0.779296875,0.299120235
613.872,0.241446725,0.75,0.299120235
613.88,0.241446725,0.71484375,0.2971652
613.888,0.241446725,0.685546875,0.296187683
613.896,0.241446725,0.64453125,0.292277615
613.904,0.241446725,0.60546875,0.289345064
613.912,0.241446725,0.5703125,0.285434995
613.92,0.241446725,0.55078125,0.28054741
613.928,0.242424242,0.529296875,0.274682307
613.936,0.24340176,0.515625,0.268817204
613.944,0.244379277,0.5,0.263929619
613.952,0.245356794,0.5,0.258064516
613.96,0.246334311,0.494140625,0.253176931
613.968,0.246334311,0.494140625,0.247311828
613.976,0.246334311,0.490234375,0.241446725
613.984,0.247311828,0.490234375,0.23655914
613.992,0.247311828,0.494140625,0.230694037
614,0.247311828,0.490234375,0.225806452
614.008,0.248289345,0.505859375,0.220918866
614.016,0.248289345,0.509765625,0.216031281
614.024,0.248289345,0.5,0.212121212
614.032,0.248289345,0.509765625,0.208211144
614.04,0.248289345,0.51953125,0.205278592
614.048,0.249266862,0.515625,0.203323558
614.056,0.249266862,0.51953125,0.201368524
614.064,0.250244379,0.515625,0.19941349
614.072,0.252199413,0.525390625,0.198435973
614.08,0.257086999,0.529296875,0.197458456
614.088,0.267839687,0.5390625,0.198435973
614.096,0.284457478,0.564453125,0.198435973
614.104,0.308895406,0.599609375,0.19941349
614.112,0.34115347,0.625,0.201368524
614.12,0.382209189,0.654296875,0.203323558
614.128,0.42913001,0.634765625,0.206256109
614.136,0.474095797,0.599609375,0.209188661
614.144,0.518084066,0.560546875,0.212121212
614.152,0.567937439,0.55078125,0.216031281
614.16,0.618768328,0.5390625,0.218963832
614.168,0.667644184,0.560546875,0.221896383
614.176,0.711632454,0.5703125,0.225806452
614.184,0.750733138,0.5390625,0.228739003
614.192,0.782991202,0.48046875,0.231671554
614.2,0.809384164,0.4609375,0.233626588
614.208,0.827956989,0.439453125,0.23655914
614.216,0.840664712,0.42578125,0.237536657
614.224,0.846529814,0.416015625,0.239491691
614.232,0.848484848,0.404296875,0.241446725
614.24,0.84457478,0.416015625,0.242424242
614.248,0.83773216,0.41015625,0.24340176
614.256,0.828934506,0.404296875,0.244379277
614.264,0.816226784,0.419921875,0.245356794
614.272,0.802541544,0.4296875,0.246334311
614.28,0.784946237,0.564453125,0.246334311
614.288,0.766373412,0.87890625,0.247311828
614.296,0.745845552,1.138671875,0.247311828
614.304,0.723362659,1.119140625,0.248289345
614.312,0.698924731,1.154296875,0.248289345
614.32,0.673509286,0.6796875,0.248289345
614.328,0.648093842,0.220703125,0.249266862
614.336,0.624633431,-0.08984375,0.250244379
614.344,0.602150538,-0.18359375,0.251221896
614.352,0.579667644,-0.115234375,0.253176931
614.36,0.556207234,-0.025390625,0.255131965
614.368,0.534701857,0.166015625,0.257086999
614.376,0.514173998,0.291015625,0.259042033
614.384,0.494623656,0.3359375,0.261974585
614.392,0.478005865,0.349609375,0.265884653
614.4,0.464320626,0.35546875,0.269794721
614.408,0.453567937,0.35546875,0.274682307
614.416,0.444770283,0.359375,0.278592375
614.424,0.437927664,0.37109375,0.284457478
614.432,0.434017595,0.375,0.289345064
614.44,0.431085044,0.375,0.295210166
614.448,0.431085044,0.375,0.301075269
614.456,0.431085044,0.380859375,0.307917889
614.464,0.433040078,0.384765625,0.313782991
614.472,0.43597263,0.390625,0.321603128
614.48,0.438905181,0.39453125,0.328445748
614.488,0.441837732,0.39453125,0.33431085
614.496,0.444770283,0.390625,0.340175953
614.504,0.446725318,0.400390625,0.346041056
614.512,0.448680352,0.400390625,0.350928641
614.52,0.449657869,0.42578125,0.355816227
614.528,0.449657869,0.439453125,0.361681329
614.536,0.448680352,0.4609375,0.366568915
614.544,0.447702835,0.474609375,0.3714565
614.552,0.446725318,0.509765625,0.376344086
614.56,0.444770283,0.5546875,0.381231672
614.568,0.442815249,0.60546875,0.38514174
614.576,0.439882698,0.64453125,0.390029326
614.584,0.436950147,0.6796875,0.393939394
614.592,0.433040078,0.71484375,0.397849462
614.6,0.42913001,0.744140625,0.399804497
614.608,0.424242424,0.759765625,0.402737048
614.616,0.419354839,0.765625,0.404692082
614.624,0.414467253,0.75,0.406647116
614.632,0.409579668,0.73046875,0.407624633
614.64,0.405669599,0.685546875,0.409579668
614.648,0.401759531,0.654296875,0.410557185
614.656,0.396871945,0.60546875,0.411534702
614.664,0.392961877,0.580078125,0.412512219
614.672,0.388074291,0.544921875,0.412512219
614.68,0.384164223,0.51953125,0.411534702
614.688,0.379276637,0.505859375,0.411534702
614.696,0.375366569,0.494140625,0.409579668
614.704,0.3714565,0.48046875,0.407624633
614.712,0.367546432,0.46484375,0.405669599
614.72,0.363636364,0.46484375,0.402737048
614.728,0.359726295,0.4609375,0.399804497
614.736,0.357771261,0.455078125,0.396871945
614.744,0.35483871,0.455078125,0.392961877
614.752,0.352883675,0.46484375,0.390029326
614.76,0.349951124,0.46484375,0.387096774
614.768,0.346041056,0.470703125,0.384164223
614.776,0.344086022,0.470703125,0.382209189
614.784,0.34115347,0.48046875,0.379276637
614.792,0.338220919,0.48046875,0.377321603
614.8,0.336265885,0.484375,0.376344086
614.808,0.333333333,0.490234375,0.374389052
614.816,0.331378299,0.494140625,0.373411535
614.824,0.328445748,0.494140625,0.372434018
614.832,0.325513196,0.505859375,0.3714565
614.84,0.324535679,0.494140625,0.3714565
614.848,0.323558162,0.494140625,0.372434018
614.856,0.323558162,0.505859375,0.374389052
614.864,0.325513196,0.5,0.377321603
614.872,0.329423265,0.494140625,0.380254154
614.88,0.336265885,0.494140625,0.384164223
614.888,0.348973607,0.494140625,0.388074291
614.896,0.366568915,0.505859375,0.39198436
614.904,0.390029326,0.490234375,0.396871945
614.912,0.418377322,0.494140625,0.400782014
614.92,0.450635386,0.494140625,0.405669599
614.928,0.485826002,0.505859375,0.409579668
614.936,0.517106549,0.515625,0.414467253
614.944,0.545454545,0.525390625,0.418377322
614.952,0.575757576,0.5546875,0.42228739
614.96,0.605083089,0.580078125,0.427174976
614.968,0.631476051,0.609375,0.430107527
614.976,0.653958944,0.62890625,0.434017595
614.984,0.672531769,0.619140625,0.43597263
614.992,0.686217009,0.58984375,0.437927664
615,0.695014663,0.564453125,0.439882698
615.008,0.699902248,0.544921875,0.440860215
615.016,0.700879765,0.5390625,0.440860215
615.024,0.698924731,0.53515625,0.440860215
615.032,0.694037146,0.5703125,0.440860215
615.04,0.687194526,0.57421875,0.439882698
615.048,0.678396872,0.494140625,0.438905181
615.056,0.667644184,0.470703125,0.437927664
615.064,0.654936461,0.44921875,0.436950147
615.072,0.640273705,0.4296875,0.434995112
615.08,0.623655914,0.42578125,0.433040078
615.088,0.605083089,0.419921875,0.432062561
615.096,0.585532747,0.42578125,0.42913001
615.104,0.56402737,0.416015625,0.426197458
615.112,0.542521994,0.416015625,0.423264907
615.12,0.520039101,0.42578125,0.420332356
615.128,0.497556207,0.4296875,0.417399804
615.136,0.478005865,0.583984375,0.413489736
615.144,0.460410557,0.900390625,0.410557185
615.152,0.442815249,1.134765625,0.407624633
615.16,0.424242424,1.125,0.404692082
615.168,0.408602151,1.1796875,0.401759531
615.176,0.392961877,0.669921875,0.398826979
615.184,0.380254154,0.189453125,0.396871945
615.192,0.369501466,-0.099609375,0.393939394
615.2,0.360703812,-0.1796875,0.39198436
615.208,0.35483871,-0.125,0.390029326
615.216,0.350928641,-0.025390625,0.388074291
615.224,0.348973607,0.166015625,0.387096774
615.232,0.34799609,0.279296875,0.38514174
615.24,0.348973607,0.314453125,0.384164223
615.248,0.349951124,0.32421875,0.383186706
615.256,0.351906158,0.330078125,0.382209189
615.264,0.353861193,0.32421875,0.381231672
615.272,0.356793744,0.349609375,0.380254154
615.28,0.356793744,0.345703125,0.379276637
615.288,0.355816227,0.359375,0.379276637
615.296,0.355816227,0.359375,0.379276637
615.304,0.356793744,0.365234375,0.379276637
615.312,0.357771261,0.359375,0.379276637
615.32,0.358748778,0.359375,0.380254154
615.328,0.358748778,0.37109375,0.381231672
615.336,0.359726295,0.37109375,0.382209189
615.344,0.359726295,0.375,0.384164223
615.352,0.359726295,0.37109375,0.386119257
615.36,0.359726295,0.365234375,0.389051808
615.368,0.358748778,0.384765625,0.39198436
615.376,0.357771261,0.384765625,0.395894428
615.384,0.355816227,0.41015625,0.399804497
615.392,0.35483871,0.419921875,0.403714565
615.4,0.352883675,0.4609375,0.407624633
615.408,0.349951124,0.490234375,0.411534702
615.416,0.34799609,0.51953125,0.416422287
615.424,0.345063539,0.560546875,0.42228739
615.432,0.342130987,0.60546875,0.428152493
615.44,0.339198436,0.64453125,0.434995112
615.448,0.337243402,0.67578125,0.440860215
615.456,0.33431085,0.705078125,0.447702835
615.464,0.330400782,0.73046875,0.453567937
615.472,0.327468231,0.740234375,0.460410557
615.48,0.323558162,0.744140625,0.467253177
615.488,0.319648094,0.708984375,0.475073314
615.496,0.315738025,0.67578125,0.481915934
615.504,0.312805474,0.64453125,0.48973607
615.512,0.309872923,0.609375,0.49657869
615.52,0.306940371,0.583984375,0.502443793
615.528,0.304985337,0.55078125,0.507331378
615.536,0.303030303,0.525390625,0.513196481
615.544,0.302052786,0.5,0.517106549
615.552,0.300097752,0.490234375,0.521994135
615.56,0.298142717,0.48046875,0.525904203
615.568,0.296187683,0.48046875,0.528836755
615.576,0.294232649,0.470703125,0.531769306
615.584,0.292277615,0.474609375,0.53372434
615.592,0.290322581,0.4609375,0.534701857
615.6,0.289345064,0.455078125,0.535679374
615.608,0.288367546,0.4609375,0.536656891
615.616,0.287390029,0.455078125,0.537634409
615.624,0.285434995,0.46484375,0.537634409
615.632,0.285434995,0.4609375,0.538611926
615.64,0.284457478,0.470703125,0.538611926
615.648,0.283479961,0.470703125,0.539589443
615.656,0.282502444,0.490234375,0.54056696
615.664,0.281524927,0.48046875,0.541544477
615.672,0.28054741,0.484375,0.543499511
615.68,0.279569892,0.48046875,0.545454545
615.688,0.279569892,0.474609375,0.54740958
615.696,0.279569892,0.494140625,0.549364614
615.704,0.28054741,0.494140625,0.551319648
615.712,0.284457478,0.505859375,0.554252199
615.72,0.290322581,0.494140625,0.556207234
615.728,0.300097752,0.490234375,0.558162268
615.736,0.311827957,0.494140625,0.562072336
615.744,0.326490714,0.490234375,0.565004888
615.752,0.34799609,0.494140625,0.568914956
615.76,0.374389052,0.505859375,0.572825024
615.768,0.404692082,0.51953125,0.575757576
615.776,0.437927664,0.544921875,0.579667644
615.784,0.472140762,0.583984375,0.582600196
615.792,0.505376344,0.609375,0.585532747
615.8,0.537634409,0.634765625,0.589442815
615.808,0.565982405,0.640625,0.592375367
615.816,0.590420332,0.599609375,0.595307918
615.824,0.610948192,0.580078125,0.599217986
615.832,0.625610948,0.564453125,0.601173021
615.84,0.635386119,0.544921875,0.603128055
615.848,0.643206256,0.5390625,0.603128055
615.856,0.648093842,0.58984375,0.604105572
615.864,0.651026393,0.57421875,0.604105572
615.872,0.651026393,0.51953125,0.604105572
615.88,0.648093842,0.484375,0.602150538
615.888,0.643206256,0.470703125,0.601173021
615.896,0.636363636,0.44921875,0.598240469
615.904,0.627565982,0.435546875,0.595307918
615.912,0.617790811,0.4296875,0.590420332
615.92,0.606060606,0.42578125,0.585532747
615.928,0.593352884,0.435546875,0.580645161
615.936,0.580645161,0.4453125,0.575757576
615.944,0.566959922,0.42578125,0.57086999
615.952,0.551319648,0.4453125,0.565004888
615.96,0.534701857,0.5,0.558162268
615.968,0.517106549,0.744140625,0.551319648
615.976,0.499511241,1.0546875,0.542521994
615.984,0.480938416,1.154296875,0.534701857
615.992,0.462365591,1.18359375,0.524926686
616,0.444770283,0.98046875,0.516129032
616.008,0.428152493,0.33984375,0.505376344
616.016,0.412512219,0.009765625,0.495601173
616.024,0.398826979,-0.16015625,0.485826002
616.032,0.388074291,-0.1640625,0.476050831
616.04,0.379276637,-0.080078125,0.467253177
616.048,0.372434018,0.076171875,0.457478006
616.056,0.365591398,0.24609375,0.448680352
616.064,0.360703812,0.3046875,0.438905181
616.072,0.357771261,0.330078125,0.42913001
616.08,0.355816227,0.330078125,0.420332356
616.088,0.35483871,0.33984375,0.411534702
616.096,0.355816227,0.3359375,0.402737048
616.104,0.356793744,0.349609375,0.394916911
616.112,0.358748778,0.345703125,0.387096774
616.12,0.360703812,0.349609375,0.379276637
616.128,0.362658847,0.359375,0.3714565
616.136,0.364613881,0.35546875,0.363636364
616.144,0.366568915,0.365234375,0.355816227
616.152,0.368523949,0.375,0.348973607
616.16,0.369501466,0.375,0.342130987
616.168,0.370478983,0.365234375,0.335288368
616.176,0.3714565,0.375,0.329423265
616.184,0.3714565,0.375,0.324535679
616.192,0.370478983,0.380859375,0.318670577
616.2,0.370478983,0.400390625,0.314760508
616.208,0.368523949,0.41015625,0.31085044
616.216,0.367546432,0.42578125,0.306940371
616.224,0.365591398,0.44921875,0.30400782
616.232,0.363636364,0.494140625,0.300097752
616.24,0.362658847,0.515625,0.2971652
616.248,0.360703812,0.5546875,0.294232649
616.256,0.357771261,0.595703125,0.291300098
616.264,0.355816227,0.62890625,0.287390029
616.272,0.352883675,0.66015625,0.284457478
616.28,0.349951124,0.69921875,0.281524927
616.288,0.347018573,0.724609375,0.277614858
616.296,0.344086022,0.73046875,0.27370479
616.304,0.34115347,0.744140625,0.270772239
616.312,0.338220919,0.73046875,0.265884653
616.32,0.335288368,0.685546875,0.260997067
616.328,0.333333333,0.654296875,0.256109482
616.336,0.331378299,0.62890625,0.251221896
616.344,0.329423265,0.58984375,0.245356794
616.352,0.327468231,0.55078125,0.239491691
616.36,0.325513196,0.525390625,0.232649071
616.368,0.323558162,0.494140625,0.225806452
616.376,0.322580645,0.48046875,0.217008798
616.384,0.320625611,0.46484375,0.209188661
616.392,0.319648094,0.4453125,0.200391007
616.4,0.318670577,0.4609375,0.191593353
616.408,0.31769306,0.439453125,0.182795699
616.416,0.315738025,0.435546875,0.173998045
616.424,0.313782991,0.439453125,0.165200391
616.432,0.312805474,0.4453125,0.156402737
616.44,0.311827957,0.439453125,0.146627566
616.448,0.31085044,0.455078125,0.137829912
616.456,0.309872923,0.4609375,0.128054741
616.464,0.307917889,0.4453125,0.11827957
616.472,0.306940371,0.455078125,0.108504399
616.48,0.304985337,0.44921875,0.099706745
616.488,0.30400782,0.470703125,0.089931574
616.496,0.302052786,0.4609375,0.08113392
616.504,0.301075269,0.470703125,0.0742913
616.512,0.299120235,0.470703125,0.06744868
616.52,0.2971652,0.48046875,0.062561095
616.528,0.296187683,0.455078125,0.057673509
616.536,0.296187683,0.474609375,0.053763441
616.544,0.298142717,0.470703125,0.049853372
616.552,0.302052786,0.470703125,0.045943304
616.56,0.308895406,0.470703125,0.043010753
616.568,0.320625611,0.46484375,0.041055718
616.576,0.336265885,0.470703125,0.039100684
616.584,0.357771261,0.470703125,0.039100684
616.592,0.383186706,0.484375,0.038123167
616.6,0.412512219,0.494140625,0.039100684
616.608,0.443792766,0.51953125,0.039100684
616.616,0.476050831,0.5546875,0.040078201
616.624,0.507331378,0.583984375,0.042033236
616.632,0.53372434,0.609375,0.04398827
616.64,0.554252199,0.619140625,0.045943304
616.648,0.575757576,0.583984375,0.048875855
616.656,0.594330401,0.564453125,0.051808407
616.664,0.609970674,0.55078125,0.054740958
616.672,0.62170088,0.525390625,0.058651026
616.68,0.630498534,0.51953125,0.061583578
616.688,0.635386119,0.55078125,0.065493646
616.696,0.636363636,0.564453125,0.069403715
616.704,0.635386119,0.515625,0.0742913
616.712,0.632453568,0.470703125,0.078201369
616.72,0.626588465,0.439453125,0.082111437
616.728,0.618768328,0.41015625,0.086021505
616.736,0.609970674,0.400390625,0.089931574
616.744,0.601173021,0.400390625,0.092864125
616.752,0.589442815,0.404296875,0.096774194
616.76,0.576735093,0.400390625,0.099706745
616.768,0.562072336,0.404296875,0.103616813
616.776,0.546432063,0.41015625,0.107526882
616.784,0.529814272,0.400390625,0.11143695
616.792,0.512218964,0.44921875,0.115347019
616.8,0.494623656,0.66015625,0.119257087
616.808,0.477028348,0.98046875,0.123167155
616.816,0.458455523,1.1484375,0.127077224
616.824,0.440860215,1.125,0.130987292
616.832,0.426197458,1.173828125,0.134897361
616.84,0.413489736,0.404296875,0.138807429
616.848,0.399804497,0.0703125,0.142717498
616.856,0.387096774,-0.16015625,0.145650049
616.864,0.375366569,-0.1796875,0.1485826
616.872,0.365591398,-0.103515625,0.151515152
616.88,0.357771261,0.03515625,0.154447703
616.888,0.351906158,0.224609375,0.157380254
616.896,0.34799609,0.294921875,0.159335288
616.904,0.345063539,0.3046875,0.161290323
616.912,0.344086022,0.32421875,0.163245357
616.92,0.344086022,0.3359375,0.165200391
616.928,0.345063539,0.345703125,0.166177908
616.936,0.347018573,0.349609375,0.167155425
616.944,0.348973607,0.35546875,0.168132942
616.952,0.350928641,0.35546875,0.168132942
616.96,0.352883675,0.35546875,0.167155425
616.968,0.355816227,0.359375,0.166177908
616.976,0.357771261,0.35546875,0.166177908
616.984,0.359726295,0.365234375,0.165200391
616.992,0.361681329,0.359375,0.164222874
617,0.362658847,0.37109375,0.163245357
617.008,0.363636364,0.375,0.16226784
617.016,0.363636364,0.375,0.160312805
617.024,0.363636364,0.375,0.159335288
617.032,0.363636364,0.384765625,0.157380254
617.04,0.362658847,0.400390625,0.15542522
617.048,0.361681329,0.419921875,0.154447703
617.056,0.359726295,0.439453125,0.152492669
617.064,0.357771261,0.474609375,0.151515152
617.072,0.355816227,0.5,0.149560117
617.08,0.352883675,0.53515625,0.149560117
617.088,0.349951124,0.580078125,0.1485826
617.096,0.34799609,0.625,0.1485826
617.104,0.345063539,0.64453125,0.1485826
617.112,0.342130987,0.689453125,0.1485826
617.12,0.339198436,0.71484375,0.147605083
617.128,0.336265885,0.734375,0.147605083
617.136,0.333333333,0.740234375,0.147605083
617.144,0.331378299,0.720703125,0.146627566
617.152,0.328445748,0.6953125,0.146627566
617.16,0.325513196,0.66015625,0.145650049
617.168,0.322580645,0.634765625,0.145650049
617.176,0.320625611,0.595703125,0.143695015
617.184,0.31769306,0.560546875,0.142717498
617.192,0.314760508,0.53515625,0.14173998
617.2,0.311827957,0.51953125,0.139784946
617.208,0.309872923,0.494140625,0.138807429
617.216,0.307917889,0.484375,0.137829912
617.224,0.305962854,0.474609375,0.136852395
617.232,0.30400782,0.470703125,0.135874878
617.24,0.303030303,0.470703125,0.133919844
617.248,0.302052786,0.46484375,0.131964809
617.256,0.300097752,0.4609375,0.129032258
617.264,0.298142717,0.474609375,0.126099707
617.272,0.296187683,0.470703125,0.124144673
617.28,0.294232649,0.46484375,0.121212121
617.288,0.292277615,0.484375,0.11827957
617.296,0.291300098,0.494140625,0.116324536
617.304,0.289345064,0.484375,0.113391984
617.312,0.287390029,0.490234375,0.11143695
617.32,0.286412512,0.484375,0.110459433
617.328,0.278592375,0.5,0.109481916
617.336,0.267839687,0.494140625,0.108504399
617.344,0.260997067,0.515625,0.108504399
617.352,0.257086999,0.51953125,0.109481916
617.36,0.254154448,0.515625,0.110459433
617.368,0.254154448,0.51953125,0.112414467
617.376,0.256109482,0.509765625,0.113391984
617.384,0.261974585,0.515625,0.115347019
617.392,0.272727273,0.51953125,0.116324536
617.4,0.289345064,0.51953125,0.119257087
617.408,0.312805474,0.515625,0.122189638
617.416,0.343108504,0.51953125,0.12512219
617.424,0.379276637,0.525390625,0.129032258
617.432,0.414467253,0.515625,0.132942326
617.44,0.448680352,0.515625,0.137829912
617.448,0.488758553,0.53515625,0.142717498
617.456,0.530791789,0.5546875,0.146627566
617.464,0.57086999,0.58984375,0.151515152
617.472,0.60801564,0.615234375,0.15542522
617.48,0.640273705,0.640625,0.159335288
617.488,0.666666667,0.66015625,0.164222874
617.496,0.688172043,0.634765625,0.167155425
617.504,0.703812317,0.615234375,0.170087977
617.512,0.715542522,0.58984375,0.173020528
617.52,0.721407625,0.564453125,0.175953079
617.528,0.723362659,0.560546875,0.177908113
617.536,0.721407625,0.560546875,0.180840665
617.544,0.717497556,0.595703125,0.182795699
617.552,0.710654936,0.5703125,0.184750733
617.56,0.7028348,0.515625,0.186705767
617.568,0.692082111,0.490234375,0.189638319
617.576,0.678396872,0.470703125,0.191593353
617.584,0.663734115,0.44921875,0.194525904
617.592,0.646138807,0.439453125,0.196480938
617.6,0.626588465,0.4453125,0.198435973
617.608,0.605083089,0.4296875,0.200391007
617.616,0.582600196,0.4296875,0.201368524
617.624,0.558162268,0.435546875,0.203323558
617.632,0.535679374,0.4453125,0.204301075
617.64,0.515151515,0.455078125,0.205278592
617.648,0.491691105,0.58984375,0.207233627
617.656,0.469208211,0.884765625,0.207233627
617.664,0.446725318,1.14453125,0.208211144
617.672,0.425219941,1.169921875,0.208211144
617.68,0.405669599,1.193359375,0.208211144
617.688,0.388074291,0.650390625,0.208211144
617.696,0.373411535,0.201171875,0.208211144
617.704,0.361681329,-0.0703125,0.209188661
617.712,0.352883675,-0.154296875,0.209188661
617.72,0.346041056,-0.09375,0.209188661
617.728,0.342130987,-0.00390625,0.209188661
617.736,0.340175953,0.1796875,0.208211144
617.744,0.339198436,0.3046875,0.208211144
617.752,0.340175953,0.330078125,0.207233627
617.76,0.342130987,0.35546875,0.206256109
617.768,0.345063539,0.365234375,0.205278592
617.776,0.34799609,0.37109375,0.204301075
617.784,0.351906158,0.375,0.203323558
617.792,0.35483871,0.380859375,0.202346041
617.8,0.358748778,0.390625,0.201368524
617.808,0.361681329,0.39453125,0.19941349
617.816,0.363636364,0.400390625,0.198435973
617.824,0.365591398,0.404296875,0.197458456
617.832,0.365591398,0.39453125,0.195503421
617.84,0.366568915,0.41015625,0.194525904
617.848,0.366568915,0.416015625,0.19257087
617.856,0.365591398,0.419921875,0.190615836
617.864,0.364613881,0.41015625,0.188660802
617.872,0.362658847,0.416015625,0.186705767
617.88,0.359726295,0.435546875,0.184750733
617.888,0.357771261,0.455078125,0.182795699
617.896,0.353861193,0.4609375,0.180840665
617.904,0.350928641,0.470703125,0.179863148
617.912,0.347018573,0.505859375,0.177908113
617.92,0.343108504,0.529296875,0.176930596
617.928,0.340175953,0.57421875,0.176930596
617.936,0.337243402,0.609375,0.175953079
617.944,0.333333333,0.66015625,0.176930596
617.952,0.329423265,0.6953125,0.176930596
617.96,0.325513196,0.724609375,0.177908113
617.968,0.321603128,0.765625,0.179863148
617.976,0.31769306,0.76953125,0.180840665
617.984,0.313782991,0.794921875,0.181818182
617.992,0.309872923,0.798828125,0.182795699
618,0.306940371,0.765625,0.183773216
618.008,0.30400782,0.734375,0.183773216
618.016,0.300097752,0.6953125,0.184750733
618.024,0.2971652,0.6640625,0.184750733
618.032,0.294232649,0.619140625,0.184750733
618.04,0.292277615,0.583984375,0.183773216
618.048,0.290322581,0.560546875,0.183773216
618.056,0.288367546,0.5390625,0.181818182
618.064,0.287390029,0.51953125,0.180840665
618.072,0.285434995,0.509765625,0.177908113
618.08,0.283479961,0.490234375,0.175953079
618.088,0.281524927,0.484375,0.172043011
618.096,0.28054741,0.490234375,0.169110459
618.104,0.278592375,0.494140625,0.166177908
618.112,0.276637341,0.494140625,0.164222874
618.12,0.275659824,0.48046875,0.16226784
618.128,0.274682307,0.490234375,0.159335288
618.136,0.27370479,0.505859375,0.157380254
618.144,0.272727273,0.5,0.154447703
618.152,0.271749756,0.505859375,0.152492669
618.16,0.269794721,0.51953125,0.149560117
618.168,0.267839687,0.51953125,0.147605083
618.176,0.265884653,0.51953125,0.145650049
618.184,0.263929619,0.525390625,0.144672532
618.192,0.261974585,0.53515625,0.142717498
618.2,0.26001955,0.5390625,0.142717498
618.208,0.259042033,0.525390625,0.14173998
618.216,0.258064516,0.529296875,0.142717498
618.224,0.26001955,0.529296875,0.143695015
618.232,0.263929619,0.525390625,0.144672532
618.24,0.270772239,0.5390625,0.146627566
618.248,0.282502444,0.5390625,0.1485826
618.256,0.301075269,0.53515625,0.150537634
618.264,0.326490714,0.5390625,0.152492669
618.272,0.357771261,0.544921875,0.15542522
618.28,0.395894428,0.5390625,0.158357771
618.288,0.436950147,0.5390625,0.160312805
618.296,0.480938416,0.544921875,0.163245357
618.304,0.523949169,0.544921875,0.166177908
618.312,0.565982405,0.564453125,0.169110459
618.32,0.604105572,0.580078125,0.172043011
618.328,0.634408602,0.625,0.174975562
618.336,0.656891496,0.654296875,0.17888563
618.344,0.678396872,0.669921875,0.181818182
618.352,0.696969697,0.67578125,0.184750733
618.36,0.709677419,0.64453125,0.186705767
618.368,0.71945259,0.62890625,0.189638319
618.376,0.723362659,0.599609375,0.191593353
618.384,0.723362659,0.583984375,0.193548387
618.392,0.720430108,0.5703125,0.195503421
618.4,0.714565005,0.60546875,0.197458456
618.408,0.705767351,0.615234375,0.19941349
618.416,0.69599218,0.5546875,0.201368524
618.424,0.683284457,0.515625,0.202346041
618.432,0.669599218,0.494140625,0.204301075
618.44,0.654936461,0.474609375,0.206256109
618.448,0.638318671,0.4609375,0.207233627
618.456,0.618768328,0.46484375,0.209188661
618.464,0.597262952,0.4609375,0.210166178
618.472,0.573802542,0.44921875,0.211143695
618.48,0.550342131,0.4609375,0.213098729
618.488,0.524926686,0.46484375,0.214076246
618.496,0.500488759,0.455078125,0.215053763
618.504,0.475073314,0.509765625,0.216031281
618.512,0.451612903,0.75,0.217008798
618.52,0.42913001,1.0546875,0.217986315
618.528,0.410557185,1.1796875,0.218963832
618.536,0.394916911,1.21484375,0.219941349
618.544,0.379276637,1.03515625,0.220918866
618.552,0.365591398,0.375,0.221896383
618.56,0.353861193,0.05078125,0.2228739
618.568,0.345063539,-0.119140625,0.223851417
618.576,0.339198436,-0.134765625,0.224828935
618.584,0.335288368,-0.048828125,0.225806452
618.592,0.333333333,0.095703125,0.226783969
618.6,0.333333333,0.275390625,0.226783969
618.608,0.335288368,0.330078125,0.227761486
618.616,0.337243402,0.349609375,0.228739003
618.624,0.340175953,0.359375,0.22971652
618.632,0.342130987,0.35546875,0.22971652
618.64,0.345063539,0.37109375,0.230694037
618.648,0.347018573,0.380859375,0.231671554
618.656,0.348973607,0.375,0.231671554
618.664,0.350928641,0.384765625,0.232649071
618.672,0.352883675,0.375,0.232649071
618.68,0.35483871,0.390625,0.233626588
618.688,0.355816227,0.384765625,0.233626588
618.696,0.355816227,0.39453125,0.234604106
618.704,0.355816227,0.384765625,0.234604106
618.712,0.35483871,0.39453125,0.235581623
618.72,0.353861193,0.390625,0.235581623
618.728,0.351906158,0.404296875,0.23655914
618.736,0.349951124,0.41015625,0.23655914
618.744,0.34799609,0.419921875,0.237536657
618.752,0.346041056,0.4296875,0.237536657
618.76,0.343108504,0.4609375,0.238514174
618.768,0.340175953,0.474609375,0.238514174
618.776,0.337243402,0.494140625,0.239491691
618.784,0.333333333,0.525390625,0.240469208
618.792,0.330400782,0.560546875,0.241446725
618.8,0.326490714,0.609375,0.242424242
618.808,0.322580645,0.64453125,0.244379277
618.816,0.318670577,0.689453125,0.245356794
618.824,0.313782991,0.724609375,0.247311828
618.832,0.31085044,0.75,0.249266862
618.84,0.308895406,0.765625,0.250244379
618.848,0.305962854,0.76953125,0.251221896
618.856,0.302052786,0.75390625,0.252199413
618.864,0.298142717,0.724609375,0.253176931
618.872,0.294232649,0.685546875,0.253176931
618.88,0.291300098,0.654296875,0.253176931
618.888,0.287390029,0.619140625,0.253176931
618.896,0.284457478,0.595703125,0.253176931
618.904,0.281524927,0.564453125,0.252199413
618.912,0.278592375,0.5390625,0.251221896
618.92,0.276637341,0.529296875,0.249266862
618.928,0.274682307,0.515625,0.248289345
618.936,0.27370479,0.5,0.246334311
618.944,0.271749756,0.494140625,0.244379277
618.952,0.269794721,0.5,0.241446725
618.96,0.268817204,0.490234375,0.239491691
618.968,0.26686217,0.484375,0.23655914
618.976,0.265884653,0.484375,0.233626588
618.984,0.264907136,0.494140625,0.22971652
618.992,0.263929619,0.5,0.226783969
619,0.261974585,0.505859375,0.223851417
619.008,0.260997067,0.494140625,0.220918866
619.016,0.26001955,0.509765625,0.218963832
619.024,0.259042033,0.5,0.216031281
619.032,0.258064516,0.509765625,0.214076246
619.04,0.258064516,0.509765625,0.212121212
619.048,0.257086999,0.515625,0.211143695
619.056,0.255131965,0.509765625,0.210166178
619.064,0.254154448,0.515625,0.209188661
619.072,0.253176931,0.51953125,0.208211144
619.08,0.253176931,0.529296875,0.208211144
619.088,0.255131965,0.51953125,0.208211144
619.096,0.260997067,0.525390625,0.209188661
619.104,0.271749756,0.53515625,0.210166178
619.112,0.289345064,0.53515625,0.212121212
619.12,0.313782991,0.529296875,0.214076246
619.128,0.339198436,0.529296875,0.217008798
619.136,0.368523949,0.525390625,0.218963832
619.144,0.404692082,0.51953125,0.2228739
619.152,0.446725318,0.529296875,0.225806452
619.16,0.491691105,0.53515625,0.22971652
619.168,0.535679374,0.525390625,0.234604106
619.176,0.57771261,0.51953125,0.238514174
619.184,0.61485826,0.53515625,0.24340176
619.192,0.647116325,0.5390625,0.248289345
619.2,0.674486804,0.564453125,0.253176931
619.208,0.695014663,0.595703125,0.258064516
619.216,0.709677419,0.619140625,0.262952102
619.224,0.718475073,0.640625,0.26686217
619.232,0.721407625,0.67578125,0.270772239
619.24,0.721407625,0.66015625,0.274682307
619.248,0.71945259,0.62890625,0.278592375
619.256,0.713587488,0.599609375,0.282502444
619.264,0.704789834,0.595703125,0.286412512
619.272,0.694037146,0.58984375,0.291300098
619.28,0.681329423,0.609375,0.295210166
619.288,0.66568915,0.609375,0.299120235
619.296,0.648093842,0.580078125,0.303030303
619.304,0.629521017,0.53515625,0.305962854
619.312,0.60801564,0.515625,0.309872923
619.32,0.585532747,0.474609375,0.312805474
619.328,0.565004888,0.474609375,0.316715543
619.336,0.543499511,0.48046875,0.320625611
619.344,0.521016618,0.470703125,0.324535679
619.352,0.49657869,0.46484375,0.328445748
619.36,0.471163245,0.455078125,0.333333333
619.368,0.447702835,0.48046875,0.337243402
619.376,0.426197458,0.484375,0.34115347
619.384,0.407624633,0.5,0.346041056
619.392,0.390029326,0.64453125,0.349951124
619.4,0.374389052,0.919921875,0.35483871
619.408,0.360703812,1.193359375,0.358748778
619.416,0.349951124,1.25,0.363636364
619.424,0.342130987,1.294921875,0.369501466
619.432,0.337243402,0.654296875,0.374389052
619.44,0.333333333,0.15625,0.380254154
619.448,0.332355816,-0.115234375,0.386119257
619.456,0.333333333,-0.16015625,0.39198436
619.464,0.335288368,-0.05859375,0.397849462
619.472,0.339198436,0.044921875,0.404692082
619.48,0.344086022,0.259765625,0.411534702
619.488,0.348973607,0.35546875,0.418377322
619.496,0.353861193,0.375,0.425219941
619.504,0.358748778,0.384765625,0.433040078
619.512,0.363636364,0.390625,0.441837732
619.52,0.367546432,0.39453125,0.450635386
619.528,0.370478983,0.41015625,0.45943304
619.536,0.372434018,0.42578125,0.468230694
619.544,0.374389052,0.419921875,0.476050831
619.552,0.375366569,0.41015625,0.484848485
619.56,0.375366569,0.419921875,0.491691105
619.568,0.373411535,0.42578125,0.499511241
619.576,0.3714565,0.416015625,0.507331378
619.584,0.368523949,0.42578125,0.515151515
619.592,0.364613881,0.416015625,0.522971652
619.6,0.360703812,0.4296875,0.530791789
619.608,0.355816227,0.416015625,0.537634409
619.616,0.349951124,0.42578125,0.543499511
619.624,0.346041056,0.4453125,0.549364614
619.632,0.342130987,0.4609375,0.555229717
619.64,0.338220919,0.455078125,0.560117302
619.648,0.333333333,0.46484375,0.565004888
619.656,0.329423265,0.5,0.569892473
619.664,0.324535679,0.5390625,0.574780059
619.672,0.320625611,0.560546875,0.579667644
619.68,0.315738025,0.60546875,0.58455523
619.688,0.311827957,0.6640625,0.589442815
619.696,0.307917889,0.689453125,0.593352884
619.704,0.30400782,0.71484375,0.597262952
619.712,0.300097752,0.75390625,0.601173021
619.72,0.2971652,0.78515625,0.605083089
619.728,0.294232649,0.794921875,0.608993157
619.736,0.292277615,0.779296875,0.611925709
619.744,0.289345064,0.775390625,0.615835777
619.752,0.286412512,0.779296875,0.619745846
619.76,0.283479961,0.734375,0.622678397
619.768,0.28054741,0.669921875,0.626588465
619.776,0.278592375,0.62890625,0.630498534
619.784,0.275659824,0.609375,0.634408602
619.792,0.27370479,0.595703125,0.638318671
619.8,0.271749756,0.580078125,0.641251222
619.808,0.270772239,0.5546875,0.64516129
619.816,0.269794721,0.544921875,0.648093842
619.824,0.269794721,0.51953125,0.651026393
619.832,0.269794721,0.529296875,0.654936461
619.84,0.269794721,0.525390625,0.65884653
619.848,0.269794721,0.5390625,0.662756598
619.856,0.269794721,0.544921875,0.667644184
619.864,0.269794721,0.53515625,0.671554252
619.872,0.269794721,0.529296875,0.676441838
619.88,0.269794721,0.5390625,0.680351906
619.888,0.269794721,0.55078125,0.685239492
619.896,0.268817204,0.53515625,0.691104594
619.904,0.268817204,0.5390625,0.696969697
619.912,0.267839687,0.5546875,0.703812317
619.92,0.265884653,0.5390625,0.710654936
619.928,0.263929619,0.55078125,0.717497556
619.936,0.262952102,0.5390625,0.724340176
619.944,0.26001955,0.55078125,0.730205279
619.952,0.257086999,0.560546875,0.736070381
619.96,0.254154448,0.55078125,0.742913001
619.968,0.252199413,0.560546875,0.749755621
619.976,0.254154448,0.560546875,0.758553275
619.984,0.259042033,0.544921875,0.766373412
619.992,0.264907136,0.560546875,0.775171065
620,0.278592375,0.5703125,0.783968719
620.008,0.300097752,0.560546875,0.792766373
620.016,0.328445748,0.564453125,0.802541544
620.024,0.357771261,0.5546875,0.810361681
620.032,0.390029326,0.55078125,0.818181818
620.04,0.42913001,0.544921875,0.826001955
620.048,0.47311828,0.564453125,0.832844575
620.056,0.518084066,0.58984375,0.839687195
620.064,0.561094819,0.60546875,0.846529814
620.072,0.602150538,0.62890625,0.852394917
620.08,0.637341153,0.66015625,0.859237537
620.088,0.667644184,0.67578125,0.865102639
620.096,0.691104594,0.685546875,0.870967742
620.104,0.709677419,0.66015625,0.876832845
620.112,0.721407625,0.654296875,0.882697947
620.12,0.729227761,0.64453125,0.887585533
620.128,0.730205279,0.62890625,0.893450635
620.136,0.728250244,0.634765625,0.899315738
620.144,0.723362659,0.654296875,0.904203324
620.152,0.716520039,0.625,0.910068426
620.16,0.705767351,0.580078125,0.914956012
620.168,0.694037146,0.53515625,0.919843597
620.176,0.678396872,0.509765625,0.924731183
620.184,0.661779081,0.484375,0.928641251
620.192,0.642228739,0.474609375,0.933528837
620.2,0.620723363,0.484375,0.938416422
620.208,0.597262952,0.484375,0.942326491
620.216,0.571847507,0.48046875,0.947214076
620.224,0.549364614,0.470703125,0.951124145
620.232,0.52688172,0.474609375,0.95601173
620.24,0.501466276,0.474609375,0.960899316
620.248,0.476050831,0.51953125,0.964809384
620.256,0.451612903,0.69921875,0.968719453
620.264,0.427174976,0.96875,0.972629521
620.272,0.404692082,1.173828125,0.975562072
620.28,0.384164223,1.208984375,0.979472141
620.288,0.366568915,1.259765625,0.983382209
620.296,0.349951124,0.330078125,0.988269795
620.304,0.337243402,-0.064453125,0.992179863
620.312,0.326490714,-0.234375,0.995112414
620.32,0.319648094,-0.16015625,0.998044966
620.328,0.314760508,-0.0546875,0.999022483
620.336,0.312805474,0.10546875,1
620.344,0.312805474,0.28515625,1
620.352,0.314760508,0.345703125,1
620.36,0.31769306,0.35546875,1
620.368,0.322580645,0.365234375,1
620.376,0.327468231,0.375,1
620.384,0.333333333,0.380859375,1
620.392,0.339198436,0.375,0.999022483
620.4,0.345063539,0.380859375,0.998044966
620.408,0.349951124,0.375,0.996089932
620.416,0.353861193,0.380859375,0.99315738
620.424,0.358748778,0.375,0.990224829
620.432,0.361681329,0.375,0.987292278
620.44,0.364613881,0.375,0.983382209
620.448,0.366568915,0.380859375,0.979472141
620.456,0.367546432,0.375,0.974584555
620.464,0.366568915,0.375,0.970674487
620.472,0.366568915,0.384765625,0.965786901
620.48,0.365591398,0.400390625,0.960899316
620.488,0.363636364,0.400390625,0.95601173
620.496,0.361681329,0.400390625,0.951124145
620.504,0.358748778,0.42578125,0.946236559
620.512,0.355816227,0.439453125,0.942326491
620.52,0.352883675,0.46484375,0.938416422
620.528,0.349951124,0.490234375,0.935483871
620.536,0.348973607,0.51953125,0.931573803
620.544,0.346041056,0.5546875,0.928641251
620.552,0.344086022,0.599609375,0.926686217
620.56,0.34115347,0.640625,0.923753666
620.568,0.339198436,0.66015625,0.920821114
620.576,0.336265885,0.69921875,0.91886608
620.584,0.333333333,0.73046875,0.916911046
620.592,0.329423265,0.73046875,0.914956012
620.6,0.326490714,0.734375,0.913000978
620.608,0.323558162,0.71484375,0.91202346
620.616,0.320625611,0.6796875,0.911045943
620.624,0.31769306,0.650390625,0.910068426
620.632,0.315738025,0.615234375,0.909090909
620.64,0.313782991,0.580078125,0.907135875
620.648,0.31085044,0.5546875,0.905180841
620.656,0.307917889,0.529296875,0.903225806
620.664,0.305962854,0.515625,0.901270772
620.672,0.30400782,0.494140625,0.899315738
620.68,0.303030303,0.490234375,0.897360704
620.688,0.301075269,0.470703125,0.896383187
620.696,0.300097752,0.48046875,0.893450635
620.704,0.299120235,0.484375,0.890518084
620.712,0.298142717,0.490234375,0.887585533
620.72,0.298142717,0.490234375,0.883675464
620.728,0.298142717,0.494140625,0.880742913
620.736,0.299120235,0.5,0.877810362
620.744,0.300097752,0.5,0.87487781
620.752,0.300097752,0.505859375,0.872922776
620.76,0.300097752,0.5,0.869990225
620.768,0.300097752,0.51953125,0.868035191
620.776,0.300097752,0.515625,0.866080156
620.784,0.300097752,0.51953125,0.864125122
620.792,0.300097752,0.51953125,0.862170088
620.8,0.300097752,0.51953125,0.860215054
620.808,0.299120235,0.525390625,0.85826002
620.816,0.299120235,0.51953125,0.856304985
620.824,0.300097752,0.51953125,0.855327468
620.832,0.303030303,0.51953125,0.853372434
620.84,0.309872923,0.51953125,0.8514174
620.848,0.314760508,0.525390625,0.850439883
620.856,0.321603128,0.515625,0.848484848
620.864,0.342130987,0.525390625,0.846529814
620.872,0.366568915,0.51953125,0.843597263
620.88,0.387096774,0.51953125,0.841642229
620.888,0.428152493,0.51953125,0.838709677
620.896,0.479960899,0.51953125,0.836754643
620.904,0.517106549,0.525390625,0.833822092
620.912,0.555229717,0.53515625,0.829912023
620.92,0.597262952,0.55078125,0.825024438
620.928,0.6285435,0.583984375,0.82111437
620.936,0.651026393,0.625,0.81427175
620.944,0.672531769,0.64453125,0.808406647
620.952,0.69599218,0.66015625,0.799608993
620.96,0.712609971,0.650390625,0.790811339
620.968,0.722385142,0.60546875,0.781036168
620.976,0.727272727,0.580078125,0.771260997
620.984,0.727272727,0.564453125,0.760508309
620.992,0.723362659,0.560546875,0.749755621
621,0.716520039,0.5703125,0.739002933
621.008,0.706744868,0.595703125,0.729227761
621.016,0.69599218,0.5703125,0.717497556
621.024,0.683284457,0.51953125,0.705767351
621.032,0.669599218,0.490234375,0.693059629
621.04,0.652981427,0.4609375,0.680351906
621.048,0.634408602,0.44921875,0.669599218
621.056,0.613880743,0.439453125,0.657869013
621.064,0.592375367,0.439453125,0.647116325
621.072,0.568914956,0.435546875,0.636363636
621.08,0.543499511,0.4453125,0.625610948
621.088,0.518084066,0.435546875,0.615835777
621.096,0.491691105,0.439453125,0.606060606
621.104,0.465298143,0.455078125,0.597262952
621.112,0.443792766,0.595703125,0.590420332
621.12,0.424242424,0.904296875,0.583577713
621.128,0.403714565,1.169921875,0.57771261
621.136,0.38514174,1.1484375,0.572825024
621.144,0.367546432,1.208984375,0.568914956
621.152,0.351906158,0.759765625,0.565004888
621.16,0.340175953,0.255859375,0.562072336
621.168,0.330400782,-0.044921875,0.559139785
621.176,0.323558162,-0.1484375,0.556207234
621.184,0.318670577,-0.103515625,0.554252199
621.192,0.315738025,-0.03515625,0.551319648
621.2,0.315738025,0.140625,0.549364614
621.208,0.316715543,0.275390625,0.54740958
621.216,0.318670577,0.3046875,0.544477028
621.224,0.320625611,0.330078125,0.542521994
621.232,0.323558162,0.33984375,0.539589443
621.24,0.326490714,0.349609375,0.534701857
621.248,0.329423265,0.35546875,0.530791789
621.256,0.332355816,0.35546875,0.524926686
621.264,0.335288368,0.35546875,0.519061584
621.272,0.337243402,0.35546875,0.512218964
621.28,0.339198436,0.359375,0.505376344
621.288,0.340175953,0.35546875,0.497556207
621.296,0.342130987,0.365234375,0.490713587
621.304,0.343108504,0.359375,0.482893451
621.312,0.343108504,0.37109375,0.476050831
621.32,0.344086022,0.359375,0.468230694
621.328,0.343108504,0.375,0.461388074
621.336,0.342130987,0.375,0.454545455
621.344,0.34115347,0.390625,0.447702835
621.352,0.338220919,0.39453125,0.439882698
621.36,0.336265885,0.419921875,0.433040078
621.368,0.33431085,0.435546875,0.426197458
621.376,0.332355816,0.4609375,0.420332356
621.384,0.329423265,0.484375,0.414467253
621.392,0.327468231,0.525390625,0.408602151
621.4,0.325513196,0.564453125,0.403714565
621.408,0.322580645,0.609375,0.397849462
621.416,0.321603128,0.654296875,0.392961877
621.424,0.320625611,0.6953125,0.387096774
621.432,0.31769306,0.724609375,0.382209189
621.44,0.315738025,0.73046875,0.376344086
621.448,0.311827957,0.75,0.3714565
621.456,0.307917889,0.744140625,0.365591398
621.464,0.304985337,0.724609375,0.360703812
621.472,0.301075269,0.6953125,0.35483871
621.48,0.2971652,0.6640625,0.348973607
621.488,0.293255132,0.625,0.344086022
621.496,0.289345064,0.583984375,0.336265885
621.504,0.285434995,0.55078125,0.328445748
621.512,0.282502444,0.529296875,0.319648094
621.52,0.28054741,0.505859375,0.309872923
621.528,0.277614858,0.5,0.301075269
621.536,0.274682307,0.48046875,0.291300098
621.544,0.271749756,0.470703125,0.281524927
621.552,0.268817204,0.470703125,0.271749756
621.56,0.26686217,0.470703125,0.260997067
621.568,0.263929619,0.474609375,0.251221896
621.576,0.262952102,0.470703125,0.240469208
621.584,0.260997067,0.474609375,0.228739003
621.592,0.26001955,0.474609375,0.218963832
621.6,0.258064516,0.470703125,0.208211144
621.608,0.256109482,0.46484375,0.198435973
621.616,0.255131965,0.48046875,0.189638319
621.624,0.255131965,0.474609375,0.181818182
621.632,0.254154448,0.48046875,0.174975562
621.64,0.253176931,0.48046875,0.170087977
621.648,0.251221896,0.490234375,0.165200391
621.656,0.250244379,0.490234375,0.16226784
621.664,0.250244379,0.494140625,0.158357771
621.672,0.250244379,0.5,0.156402737
621.68,0.252199413,0.509765625,0.154447703
621.688,0.257086999,0.505859375,0.153470186
621.696,0.265884653,0.515625,0.153470186
621.704,0.28054741,0.509765625,0.153470186
621.712,0.298142717,0.515625,0.153470186
621.72,0.320625611,0.509765625,0.15542522
621.728,0.351906158,0.515625,0.156402737
621.736,0.391006843,0.505859375,0.158357771
621.744,0.43597263,0.509765625,0.159335288
621.752,0.483870968,0.515625,0.161290323
621.76,0.53372434,0.51953125,0.163245357
621.768,0.582600196,0.515625,0.164222874
621.776,0.627565982,0.529296875,0.166177908
621.784,0.667644184,0.5390625,0.167155425
621.792,0.701857283,0.5703125,0.169110459
621.8,0.730205279,0.60546875,0.170087977
621.808,0.750733138,0.634765625,0.172043011
621.816,0.76344086,0.654296875,0.172043011
621.824,0.77028348,0.62890625,0.173020528
621.832,0.773216031,0.595703125,0.173998045
621.84,0.774193548,0.564453125,0.173998045
621.848,0.77028348,0.55078125,0.173998045
621.856,0.764418377,0.5390625,0.173998045
621.864,0.75659824,0.55078125,0.173998045
621.872,0.744868035,0.583984375,0.173020528
621.88,0.731182796,0.560546875,0.172043011
621.888,0.715542522,0.5,0.170087977
621.896,0.698924731,0.48046875,0.168132942
621.904,0.679374389,0.44921875,0.165200391
621.912,0.659824047,0.435546875,0.16226784
621.92,0.641251222,0.42578125,0.160312805
621.928,0.618768328,0.4296875,0.157380254
621.936,0.595307918,0.42578125,0.154447703
621.944,0.569892473,0.42578125,0.151515152
621.952,0.543499511,0.42578125,0.149560117
621.96,0.517106549,0.4296875,0.146627566
621.968,0.490713587,0.439453125,0.143695015
621.976,0.465298143,0.57421875,0.14173998
621.984,0.441837732,0.89453125,0.140762463
621.992,0.420332356,1.16015625,0.139784946
622,0.401759531,1.138671875,0.138807429
622.008,0.387096774,1.189453125,0.138807429
622.016,0.375366569,0.71484375,0.137829912
622.024,0.367546432,0.255859375,0.138807429
622.032,0.360703812,-0.044921875,0.138807429
622.04,0.355816227,-0.16015625,0.140762463
622.048,0.353861193,-0.109375,0.142717498
622.056,0.352883675,-0.0390625,0.144672532
622.064,0.353861193,0.130859375,0.147605083
622.072,0.355816227,0.25,0.151515152
622.08,0.359726295,0.30078125,0.156402737
622.088,0.363636364,0.314453125,0.161290323
622.096,0.367546432,0.330078125,0.166177908
622.104,0.372434018,0.330078125,0.171065494
622.112,0.375366569,0.33984375,0.175953079
622.12,0.379276637,0.345703125,0.181818182
622.128,0.383186706,0.349609375,0.186705767
622.136,0.386119257,0.35546875,0.193548387
622.144,0.389051808,0.365234375,0.19941349
622.152,0.391006843,0.349609375,0.206256109
622.16,0.39198436,0.35546875,0.213098729
622.168,0.391006843,0.35546875,0.218963832
622.176,0.390029326,0.35546875,0.225806452
622.184,0.387096774,0.35546875,0.230694037
622.192,0.384164223,0.365234375,0.23655914
622.2,0.379276637,0.375,0.241446725
622.208,0.374389052,0.390625,0.247311828
622.216,0.3714565,0.400390625,0.253176931
622.224,0.367546432,0.400390625,0.26001955
622.232,0.363636364,0.439453125,0.26686217
622.24,0.359726295,0.4609375,0.27370479
622.248,0.355816227,0.490234375,0.28054741
622.256,0.351906158,0.51953125,0.288367546
622.264,0.34799609,0.57421875,0.295210166
622.272,0.344086022,0.615234375,0.302052786
622.28,0.340175953,0.654296875,0.307917889
622.288,0.335288368,0.689453125,0.314760508
622.296,0.331378299,0.708984375,0.320625611
622.304,0.327468231,0.724609375,0.326490714
622.312,0.324535679,0.734375,0.332355816
622.32,0.322580645,0.740234375,0.338220919
622.328,0.318670577,0.73046875,0.342130987
622.336,0.315738025,0.69921875,0.346041056
622.344,0.311827957,0.6640625,0.348973607
622.352,0.307917889,0.619140625,0.351906158
622.36,0.30400782,0.595703125,0.352883675
622.368,0.301075269,0.560546875,0.353861193
622.376,0.2971652,0.53515625,0.351906158
622.384,0.294232649,0.515625,0.350928641
622.392,0.291300098,0.494140625,0.347018573
622.4,0.288367546,0.484375,0.344086022
622.408,0.285434995,0.474609375,0.339198436
622.416,0.283479961,0.470703125,0.33431085
622.424,0.282502444,0.474609375,0.328445748
622.432,0.281524927,0.46484375,0.323558162
622.44,0.279569892,0.455078125,0.31769306
622.448,0.276637341,0.46484375,0.311827957
622.456,0.274682307,0.46484375,0.304985337
622.464,0.272727273,0.470703125,0.298142717
622.472,0.269794721,0.474609375,0.290322581
622.48,0.267839687,0.48046875,0.282502444
622.488,0.264907136,0.48046875,0.275659824
622.496,0.262952102,0.48046875,0.268817204
622.504,0.260997067,0.48046875,0.262952102
622.512,0.26001955,0.490234375,0.257086999
622.52,0.259042033,0.490234375,0.252199413
622.528,0.258064516,0.5,0.247311828
622.536,0.257086999,0.494140625,0.244379277
622.544,0.257086999,0.494140625,0.240469208
622.552,0.26001955,0.494140625,0.239491691
622.56,0.26686217,0.494140625,0.237536657
622.568,0.278592375,0.5,0.237536657
622.576,0.2971652,0.5,0.238514174
622.584,0.322580645,0.494140625,0.239491691
622.592,0.355816227,0.505859375,0.240469208
622.6,0.395894428,0.505859375,0.242424242
622.608,0.440860215,0.505859375,0.244379277
622.616,0.480938416,0.509765625,0.248289345
622.624,0.519061584,0.5,0.251221896
622.632,0.562072336,0.515625,0.255131965
622.64,0.604105572,0.53515625,0.259042033
622.648,0.642228739,0.5703125,0.262952102
622.656,0.675464321,0.609375,0.26686217
622.664,0.7028348,0.62890625,0.269794721
622.672,0.724340176,0.634765625,0.27370479
622.68,0.738025415,0.58984375,0.275659824
622.688,0.746823069,0.560546875,0.278592375
622.696,0.750733138,0.5546875,0.28054741
622.704,0.749755621,0.53515625,0.282502444
622.712,0.744868035,0.525390625,0.282502444
622.72,0.738025415,0.544921875,0.283479961
622.728,0.728250244,0.560546875,0.282502444
622.736,0.716520039,0.509765625,0.281524927
622.744,0.7028348,0.470703125,0.279569892
622.752,0.687194526,0.455078125,0.277614858
622.76,0.670576735,0.435546875,0.274682307
622.768,0.651026393,0.42578125,0.271749756
622.776,0.630498534,0.41015625,0.267839687
622.784,0.607038123,0.416015625,0.263929619
622.792,0.583577713,0.416015625,0.258064516
622.8,0.559139785,0.416015625,0.253176931
622.808,0.532746823,0.416015625,0.248289345
622.816,0.509286413,0.42578125,0.24340176
622.824,0.487781036,0.46484375,0.239491691
622.832,0.464320626,0.66015625,0.234604106
622.84,0.441837732,0.974609375,0.22971652
622.848,0.419354839,1.1640625,0.224828935
622.856,0.399804497,1.1796875,0.218963832
622.864,0.381231672,1.19921875,0.213098729
622.872,0.365591398,0.494140625,0.207233627
622.88,0.352883675,0.130859375,0.202346041
622.888,0.343108504,-0.115234375,0.197458456
622.896,0.335288368,-0.1640625,0.19257087
622.904,0.331378299,-0.08984375,0.189638319
622.912,0.330400782,0.005859375,0.18572825
622.92,0.330400782,0.185546875,0.183773216
622.928,0.333333333,0.26953125,0.181818182
622.936,0.337243402,0.28515625,0.181818182
622.944,0.342130987,0.3046875,0.181818182
622.952,0.34799609,0.3203125,0.183773216
622.96,0.353861193,0.330078125,0.18572825
622.968,0.358748778,0.32421875,0.188660802
622.976,0.364613881,0.3359375,0.191593353
622.984,0.368523949,0.345703125,0.195503421
622.992,0.3714565,0.3359375,0.19941349
623,0.372434018,0.330078125,0.204301075
623.008,0.373411535,0.33984375,0.210166178
623.016,0.372434018,0.330078125,0.217008798
623.024,0.370478983,0.3359375,0.223851417
623.032,0.366568915,0.345703125,0.232649071
623.04,0.360703812,0.35546875,0.242424242
623.048,0.35483871,0.37109375,0.252199413
623.056,0.34799609,0.375,0.261974585
623.064,0.34115347,0.380859375,0.271749756
623.072,0.333333333,0.37109375,0.281524927
623.08,0.326490714,0.375,0.290322581
623.088,0.319648094,0.404296875,0.299120235
623.096,0.313782991,0.4453125,0.309872923
623.104,0.308895406,0.470703125,0.319648094
623.112,0.305962854,0.509765625,0.331378299
623.12,0.304985337,0.5546875,0.342130987
623.128,0.30400782,0.615234375,0.351906158
623.136,0.303030303,0.654296875,0.362658847
623.144,0.30400782,0.67578125,0.372434018
623.152,0.30400782,0.69921875,0.382209189
623.16,0.304985337,0.720703125,0.391006843
623.168,0.305962854,0.720703125,0.400782014
623.176,0.306940371,0.705078125,0.410557185
623.184,0.306940371,0.685546875,0.419354839
623.192,0.306940371,0.669921875,0.428152493
623.2,0.305962854,0.640625,0.437927664
623.208,0.304985337,0.619140625,0.445747801
623.216,0.30400782,0.57421875,0.454545455
623.224,0.302052786,0.5390625,0.461388074
623.232,0.300097752,0.505859375,0.468230694
623.24,0.2971652,0.490234375,0.474095797
623.248,0.294232649,0.470703125,0.479960899
623.256,0.292277615,0.474609375,0.484848485
623.264,0.289345064,0.484375,0.490713587
623.272,0.287390029,0.474609375,0.495601173
623.28,0.286412512,0.48046875,0.500488759
623.288,0.285434995,0.455078125,0.505376344
623.296,0.285434995,0.455078125,0.51026393
623.304,0.285434995,0.4609375,0.516129032
623.312,0.286412512,0.4453125,0.521016618
623.32,0.287390029,0.470703125,0.52688172
623.328,0.289345064,0.474609375,0.53372434
