Time,PPG,ECG,resp
0,0.410557185,0.314453125,0.717097171
0.008,0.400782014,0.28515625,0.720787208
0.016,0.391006843,0.30078125,0.723247232
0.024,0.382209189,0.3046875,0.726937269
0.032,0.372434018,0.294921875,0.730627306
0.04,0.363636364,0.294921875,0.733087331
0.048,0.355816227,0.294921875,0.736777368
0.056,0.348973607,0.30078125,0.740467405
0.064,0.344086022,0.30078125,0.744157442
0.072,0.339198436,0.3046875,0.746617466
0.08,0.335288368,0.30078125,0.749077491
0.088,0.330400782,0.3046875,0.751537515
0.096,0.325513196,0.310546875,0.75399754
0.104,0.320625611,0.310546875,0.755227552
0.112,0.316715543,0.314453125,0.756457565
0.12,0.311827957,0.32421875,0.758917589
0.128,0.307917889,0.32421875,0.760147601
0.136,0.30400782,0.32421875,0.761377614
0.144,0.301075269,0.32421875,0.762607626
0.152,0.298142717,0.3359375,0.763837638
0.16,0.296187683,0.3359375,0.765067651
0.168,0.295210166,0.3359375,0.766297663
0.176,0.293255132,0.3359375,0.767527675
0.184,0.291300098,0.345703125,0.767527675
0.192,0.289345064,0.35546875,0.768757688
0.2,0.285434995,0.35546875,0.768757688
0.208,0.282502444,0.359375,0.768757688
0.216,0.279569892,0.365234375,0.7699877
0.224,0.277614858,0.375,0.7699877
0.232,0.275659824,0.380859375,0.771217712
0.24,0.27370479,0.380859375,0.771217712
0.248,0.271749756,0.390625,0.771217712
0.256,0.270772239,0.404296875,0.771217712
0.264,0.269794721,0.41015625,0.771217712
0.272,0.269794721,0.416015625,0.768757688
0.28,0.268817204,0.42578125,0.767527675
0.288,0.267839687,0.435546875,0.765067651
0.296,0.26686217,0.44921875,0.762607626
0.304,0.265884653,0.4609375,0.760147601
0.312,0.263929619,0.470703125,0.756457565
0.32,0.262952102,0.48046875,0.75399754
0.328,0.260997067,0.484375,0.750307503
0.336,0.260997067,0.48046875,0.746617466
0.344,0.26001955,0.474609375,0.741697417
0.352,0.26001955,0.44921875,0.736777368
0.36,0.260997067,0.42578125,0.730627306
0.368,0.261974585,0.400390625,0.723247232
0.376,0.261974585,0.37109375,0.717097171
0.384,0.261974585,0.3359375,0.708487085
0.392,0.262952102,0.314453125,0.699876999
0.4,0.261974585,0.30078125,0.692496925
0.408,0.261974585,0.28515625,0.685116851
0.416,0.261974585,0.279296875,0.67896679
0.424,0.260997067,0.275390625,0.671586716
0.432,0.260997067,0.275390625,0.664206642
0.44,0.260997067,0.275390625,0.656826568
0.448,0.26001955,0.275390625,0.649446494
0.456,0.26001955,0.275390625,0.640836408
0.464,0.260997067,0.279296875,0.633456335
0.472,0.260997067,0.28515625,0.626076261
0.48,0.263929619,0.279296875,0.618696187
0.488,0.269794721,0.28515625,0.611316113
0.496,0.28054741,0.28515625,0.603936039
0.504,0.2971652,0.28515625,0.596555966
0.512,0.321603128,0.28515625,0.587945879
0.52,0.353861193,0.28515625,0.580565806
0.528,0.392961877,0.291015625,0.573185732
0.536,0.439882698,0.291015625,0.565805658
0.544,0.490713587,0.28515625,0.557195572
0.552,0.543499511,0.28515625,0.549815498
0.56,0.588465298,0.28515625,0.543665437
0.568,0.626588465,0.28515625,0.536285363
0.576,0.66568915,0.28515625,0.530135301
0.584,0.698924731,0.28515625,0.52398524
0.592,0.725317693,0.294921875,0.517835178
0.6,0.742913001,0.291015625,0.511685117
0.608,0.752688172,0.294921875,0.505535055
0.616,0.755620723,0.28515625,0.498154982
0.624,0.752688172,0.291015625,0.493234932
0.632,0.745845552,0.291015625,0.487084871
0.64,0.736070381,0.294921875,0.480934809
0.648,0.72629521,0.294921875,0.47601476
0.656,0.717497556,0.294921875,0.469864699
0.664,0.709677419,0.294921875,0.464944649
0.672,0.703812317,0.294921875,0.458794588
0.68,0.700879765,0.294921875,0.451414514
0.688,0.699902248,0.30078125,0.44403444
0.696,0.7028348,0.3046875,0.437884379
0.704,0.706744868,0.30078125,0.429274293
0.712,0.712609971,0.3046875,0.421894219
0.72,0.718475073,0.30078125,0.414514145
0.728,0.723362659,0.30078125,0.408364084
0.736,0.72629521,0.310546875,0.402214022
0.744,0.723362659,0.3046875,0.396063961
0.752,0.715542522,0.310546875,0.389913899
0.76,0.707722385,0.310546875,0.38499385
0.768,0.697947214,0.310546875,0.378843788
0.776,0.686217009,0.310546875,0.373923739
0.784,0.672531769,0.310546875,0.367773678
0.792,0.656891496,0.310546875,0.362853629
0.8,0.642228739,0.3046875,0.359163592
0.808,0.627565982,0.310546875,0.354243542
0.816,0.61485826,0.314453125,0.349323493
0.824,0.604105572,0.3203125,0.344403444
0.832,0.595307918,0.3359375,0.340713407
0.84,0.589442815,0.349609375,0.335793358
0.848,0.585532747,0.365234375,0.330873309
0.856,0.582600196,0.359375,0.327183272
0.864,0.580645161,0.349609375,0.323493235
0.872,0.578690127,0.35546875,0.319803198
0.88,0.575757576,0.359375,0.316113161
0.888,0.573802542,0.35546875,0.312423124
0.896,0.57086999,0.3359375,0.308733087
0.904,0.566959922,0.330078125,0.30504305
0.912,0.562072336,0.310546875,0.301353014
0.92,0.556207234,0.291015625,0.298892989
0.928,0.550342131,0.291015625,0.295202952
0.936,0.542521994,0.294921875,0.292742927
0.944,0.534701857,0.294921875,0.289052891
0.952,0.52688172,0.279296875,0.286592866
0.96,0.519061584,0.220703125,0.282902829
0.968,0.511241447,0.201171875,0.280442804
0.976,0.50342131,0.330078125,0.276752768
0.984,0.494623656,0.708984375,0.273062731
0.992,0.486803519,1.09375,0.269372694
1,0.478005865,0.919921875,0.265682657
1.008,0.470185728,0.5390625,0.260762608
1.016,0.462365591,0.359375,0.257072571
1.024,0.454545455,0.310546875,0.253382534
1.032,0.446725318,0.30078125,0.248462485
1.04,0.439882698,0.294921875,0.244772448
1.048,0.433040078,0.28515625,0.242312423
1.056,0.428152493,0.291015625,0.238622386
1.064,0.423264907,0.28515625,0.236162362
1.072,0.418377322,0.28515625,0.232472325
1.08,0.413489736,0.28515625,0.2300123
1.088,0.409579668,0.291015625,0.226322263
1.096,0.404692082,0.294921875,0.222632226
1.104,0.400782014,0.294921875,0.220172202
1.112,0.396871945,0.30078125,0.216482165
1.12,0.393939394,0.30078125,0.21402214
1.128,0.390029326,0.310546875,0.212792128
1.136,0.387096774,0.310546875,0.210332103
1.144,0.384164223,0.314453125,0.207872079
1.152,0.381231672,0.314453125,0.205412054
1.16,0.379276637,0.314453125,0.20295203
1.168,0.377321603,0.3203125,0.200492005
1.176,0.375366569,0.330078125,0.196801968
1.184,0.373411535,0.3359375,0.194341943
1.192,0.3714565,0.3359375,0.190651907
1.2,0.368523949,0.3359375,0.18696187
1.208,0.366568915,0.33984375,0.184501845
1.216,0.364613881,0.349609375,0.18204182
1.224,0.361681329,0.349609375,0.178351784
1.232,0.358748778,0.35546875,0.175891759
1.24,0.35483871,0.359375,0.173431734
1.248,0.351906158,0.375,0.17097171
1.256,0.349951124,0.380859375,0.168511685
1.264,0.348973607,0.380859375,0.166051661
1.272,0.347018573,0.384765625,0.164821648
1.28,0.345063539,0.39453125,0.162361624
1.288,0.343108504,0.404296875,0.159901599
1.296,0.34115347,0.41015625,0.157441574
1.304,0.338220919,0.4296875,0.156211562
1.312,0.336265885,0.439453125,0.153751538
1.32,0.333333333,0.44921875,0.151291513
1.328,0.331378299,0.470703125,0.148831488
1.336,0.329423265,0.474609375,0.145141451
1.344,0.327468231,0.48046875,0.141451415
1.352,0.325513196,0.484375,0.137761378
1.36,0.324535679,0.474609375,0.135301353
1.368,0.324535679,0.46484375,0.131611316
1.376,0.323558162,0.4453125,0.129151292
1.384,0.322580645,0.41015625,0.126691267
1.392,0.321603128,0.380859375,0.124231242
1.4,0.321603128,0.35546875,0.120541205
1.408,0.320625611,0.32421875,0.118081181
1.416,0.319648094,0.30078125,0.115621156
1.424,0.31769306,0.28515625,0.111931119
1.432,0.316715543,0.275390625,0.109471095
1.44,0.314760508,0.26953125,0.108241082
1.448,0.312805474,0.26953125,0.105781058
1.456,0.311827957,0.275390625,0.103321033
1.464,0.31085044,0.275390625,0.102091021
1.472,0.308895406,0.275390625,0.100861009
1.48,0.306940371,0.275390625,0.098400984
1.488,0.304985337,0.275390625,0.097170972
1.496,0.305962854,0.279296875,0.095940959
1.504,0.309872923,0.279296875,0.094710947
1.512,0.31769306,0.279296875,0.093480935
1.52,0.332355816,0.279296875,0.093480935
1.528,0.353861193,0.28515625,0.092250923
1.536,0.384164223,0.28515625,0.092250923
1.544,0.420332356,0.28515625,0.092250923
1.552,0.463343109,0.28515625,0.092250923
1.56,0.502443793,0.28515625,0.092250923
1.568,0.54056696,0.28515625,0.093480935
1.576,0.583577713,0.28515625,0.093480935
1.584,0.625610948,0.279296875,0.094710947
1.592,0.663734115,0.28515625,0.095940959
1.6,0.695014663,0.28515625,0.095940959
1.608,0.718475073,0.28515625,0.097170972
1.616,0.734115347,0.28515625,0.098400984
1.624,0.742913001,0.291015625,0.099630996
1.632,0.744868035,0.28515625,0.099630996
1.64,0.742913001,0.28515625,0.100861009
1.648,0.737047898,0.28515625,0.102091021
1.656,0.730205279,0.291015625,0.102091021
1.664,0.722385142,0.291015625,0.102091021
1.672,0.715542522,0.28515625,0.103321033
1.68,0.710654936,0.291015625,0.103321033
1.688,0.707722385,0.294921875,0.103321033
1.696,0.706744868,0.294921875,0.104551046
1.704,0.707722385,0.30078125,0.104551046
1.712,0.711632454,0.30078125,0.105781058
1.72,0.717497556,0.30078125,0.10701107
1.728,0.724340176,0.294921875,0.10701107
1.736,0.731182796,0.3046875,0.108241082
1.744,0.738025415,0.310546875,0.108241082
1.752,0.741935484,0.30078125,0.109471095
1.76,0.742913001,0.30078125,0.109471095
1.768,0.740957967,0.3046875,0.109471095
1.776,0.736070381,0.310546875,0.109471095
1.784,0.728250244,0.3046875,0.109471095
1.792,0.717497556,0.310546875,0.110701107
1.8,0.7028348,0.310546875,0.110701107
1.808,0.687194526,0.310546875,0.111931119
1.816,0.668621701,0.310546875,0.111931119
1.824,0.650048876,0.310546875,0.113161132
1.832,0.631476051,0.310546875,0.114391144
1.84,0.61485826,0.310546875,0.114391144
1.848,0.600195503,0.310546875,0.115621156
1.856,0.588465298,0.314453125,0.116851169
1.864,0.579667644,0.314453125,0.118081181
1.872,0.572825024,0.32421875,0.119311193
1.88,0.567937439,0.330078125,0.120541205
1.888,0.565004888,0.349609375,0.121771218
1.896,0.563049853,0.359375,0.124231242
1.904,0.561094819,0.359375,0.126691267
1.912,0.560117302,0.359375,0.127921279
1.92,0.557184751,0.359375,0.130381304
1.928,0.554252199,0.359375,0.132841328
1.936,0.550342131,0.35546875,0.135301353
1.944,0.545454545,0.33984375,0.136531365
1.952,0.539589443,0.3359375,0.13899139
1.96,0.53372434,0.314453125,0.140221402
1.968,0.52688172,0.294921875,0.142681427
1.976,0.519061584,0.294921875,0.143911439
1.984,0.51026393,0.294921875,0.146371464
1.992,0.500488759,0.294921875,0.148831488
2,0.490713587,0.291015625,0.150061501
2.008,0.480938416,0.23046875,0.152521525
2.016,0.470185728,0.205078125,0.153751538
2.024,0.460410557,0.30078125,0.15498155
2.032,0.451612903,0.654296875,0.15498155
2.04,0.442815249,1.064453125,0.156211562
2.048,0.434017595,1.103515625,0.156211562
2.056,0.427174976,0.57421875,0.156211562
2.064,0.421309873,0.37109375,0.156211562
2.072,0.41544477,0.314453125,0.156211562
2.08,0.409579668,0.30078125,0.156211562
2.088,0.404692082,0.294921875,0.156211562
2.096,0.399804497,0.28515625,0.157441574
2.104,0.394916911,0.28515625,0.157441574
2.112,0.390029326,0.28515625,0.157441574
2.12,0.386119257,0.28515625,0.157441574
2.128,0.382209189,0.28515625,0.158671587
2.136,0.377321603,0.291015625,0.158671587
2.144,0.373411535,0.291015625,0.158671587
2.152,0.3714565,0.294921875,0.158671587
2.16,0.368523949,0.294921875,0.159901599
2.168,0.366568915,0.30078125,0.159901599
2.176,0.363636364,0.3046875,0.159901599
2.184,0.360703812,0.3046875,0.159901599
2.192,0.358748778,0.310546875,0.161131611
2.2,0.355816227,0.310546875,0.161131611
2.208,0.352883675,0.310546875,0.161131611
2.216,0.350928641,0.3203125,0.161131611
2.224,0.34799609,0.32421875,0.162361624
2.232,0.346041056,0.3203125,0.162361624
2.24,0.343108504,0.3359375,0.162361624
2.248,0.34115347,0.3359375,0.162361624
2.256,0.339198436,0.33984375,0.163591636
2.264,0.337243402,0.345703125,0.163591636
2.272,0.335288368,0.35546875,0.163591636
2.28,0.333333333,0.35546875,0.164821648
2.288,0.330400782,0.359375,0.164821648
2.296,0.328445748,0.365234375,0.166051661
2.304,0.325513196,0.375,0.167281673
2.312,0.322580645,0.380859375,0.168511685
2.32,0.320625611,0.390625,0.169741697
2.328,0.31769306,0.39453125,0.17097171
2.336,0.314760508,0.404296875,0.17097171
2.344,0.311827957,0.416015625,0.172201722
2.352,0.31085044,0.42578125,0.172201722
2.36,0.309872923,0.435546875,0.172201722
2.368,0.307917889,0.44921875,0.172201722
2.376,0.306940371,0.455078125,0.172201722
2.384,0.304985337,0.46484375,0.17097171
2.392,0.30400782,0.474609375,0.169741697
2.4,0.302052786,0.474609375,0.168511685
2.408,0.301075269,0.48046875,0.168511685
2.416,0.300097752,0.46484375,0.166051661
2.424,0.299120235,0.4453125,0.164821648
2.432,0.298142717,0.419921875,0.162361624
2.44,0.2971652,0.390625,0.159901599
2.448,0.296187683,0.35546875,0.157441574
2.456,0.296187683,0.3359375,0.153751538
2.464,0.296187683,0.310546875,0.151291513
2.472,0.295210166,0.291015625,0.148831488
2.48,0.294232649,0.279296875,0.146371464
2.488,0.293255132,0.26953125,0.143911439
2.496,0.292277615,0.26953125,0.142681427
2.504,0.290322581,0.265625,0.141451415
2.512,0.289345064,0.265625,0.13899139
2.52,0.287390029,0.275390625,0.137761378
2.528,0.286412512,0.275390625,0.136531365
2.536,0.285434995,0.275390625,0.135301353
2.544,0.285434995,0.275390625,0.135301353
2.552,0.289345064,0.279296875,0.134071341
2.56,0.296187683,0.279296875,0.135301353
2.568,0.307917889,0.279296875,0.135301353
2.576,0.327468231,0.279296875,0.136531365
2.584,0.353861193,0.279296875,0.136531365
2.592,0.388074291,0.28515625,0.137761378
2.6,0.430107527,0.279296875,0.137761378
2.608,0.476050831,0.279296875,0.13899139
2.616,0.523949169,0.28515625,0.13899139
2.624,0.571847507,0.28515625,0.140221402
2.632,0.616813294,0.28515625,0.140221402
2.64,0.656891496,0.28515625,0.141451415
2.648,0.688172043,0.28515625,0.142681427
2.656,0.709677419,0.28515625,0.143911439
2.664,0.722385142,0.279296875,0.145141451
2.672,0.730205279,0.28515625,0.146371464
2.68,0.73313783,0.28515625,0.147601476
2.688,0.732160313,0.28515625,0.148831488
2.696,0.72629521,0.28515625,0.150061501
2.704,0.71945259,0.291015625,0.151291513
2.712,0.711632454,0.28515625,0.152521525
2.72,0.703812317,0.28515625,0.153751538
2.728,0.697947214,0.28515625,0.153751538
2.736,0.694037146,0.291015625,0.15498155
2.744,0.693059629,0.294921875,0.15498155
2.752,0.694037146,0.30078125,0.156211562
2.76,0.695014663,0.294921875,0.156211562
2.768,0.699902248,0.294921875,0.157441574
2.776,0.706744868,0.30078125,0.157441574
2.784,0.712609971,0.30078125,0.158671587
2.792,0.718475073,0.30078125,0.158671587
2.8,0.721407625,0.3046875,0.158671587
2.808,0.723362659,0.30078125,0.158671587
2.816,0.723362659,0.30078125,0.158671587
2.824,0.718475073,0.30078125,0.158671587
2.832,0.710654936,0.30078125,0.158671587
2.84,0.698924731,0.3046875,0.157441574
2.848,0.684261975,0.310546875,0.157441574
2.856,0.667644184,0.310546875,0.157441574
2.864,0.651026393,0.310546875,0.158671587
2.872,0.632453568,0.314453125,0.158671587
2.88,0.613880743,0.330078125,0.159901599
2.888,0.596285435,0.349609375,0.161131611
2.896,0.580645161,0.359375,0.162361624
2.904,0.567937439,0.35546875,0.163591636
2.912,0.558162268,0.349609375,0.166051661
2.92,0.551319648,0.35546875,0.167281673
2.928,0.54740958,0.359375,0.169741697
2.936,0.543499511,0.345703125,0.17097171
2.944,0.54056696,0.3359375,0.173431734
2.952,0.538611926,0.32421875,0.174661747
2.96,0.535679374,0.30078125,0.175891759
2.968,0.532746823,0.28515625,0.178351784
2.976,0.529814272,0.291015625,0.179581796
2.984,0.524926686,0.294921875,0.180811808
2.992,0.519061584,0.294921875,0.18204182
3,0.513196481,0.275390625,0.183271833
3.008,0.505376344,0.205078125,0.184501845
3.016,0.49657869,0.224609375,0.185731857
3.024,0.487781036,0.419921875,0.18696187
3.032,0.478983382,0.833984375,0.189421894
3.04,0.469208211,1.08984375,0.189421894
3.048,0.45943304,0.779296875,0.190651907
3.056,0.450635386,0.455078125,0.191881919
3.064,0.442815249,0.32421875,0.191881919
3.072,0.434017595,0.291015625,0.193111931
3.08,0.424242424,0.291015625,0.193111931
3.088,0.41544477,0.28515625,0.194341943
3.096,0.406647116,0.28515625,0.194341943
3.104,0.398826979,0.275390625,0.194341943
3.112,0.391006843,0.275390625,0.194341943
3.12,0.383186706,0.275390625,0.194341943
3.128,0.376344086,0.28515625,0.195571956
3.136,0.370478983,0.28515625,0.195571956
3.144,0.364613881,0.291015625,0.195571956
3.152,0.360703812,0.291015625,0.194341943
3.16,0.356793744,0.30078125,0.194341943
3.168,0.352883675,0.3046875,0.193111931
3.176,0.34799609,0.310546875,0.191881919
3.184,0.344086022,0.310546875,0.191881919
3.192,0.340175953,0.310546875,0.190651907
3.2,0.336265885,0.314453125,0.190651907
3.208,0.333333333,0.3203125,0.189421894
3.216,0.329423265,0.32421875,0.189421894
3.224,0.326490714,0.330078125,0.188191882
3.232,0.323558162,0.330078125,0.188191882
3.24,0.320625611,0.3359375,0.188191882
3.248,0.318670577,0.3359375,0.188191882
3.256,0.316715543,0.3359375,0.18696187
3.264,0.315738025,0.345703125,0.18696187
3.272,0.313782991,0.349609375,0.18696187
3.28,0.311827957,0.359375,0.18696187
3.288,0.309872923,0.365234375,0.185731857
3.296,0.306940371,0.37109375,0.185731857
3.304,0.30400782,0.380859375,0.185731857
3.312,0.302052786,0.384765625,0.185731857
3.32,0.300097752,0.390625,0.185731857
3.328,0.2971652,0.39453125,0.185731857
3.336,0.294232649,0.41015625,0.185731857
3.344,0.291300098,0.419921875,0.185731857
3.352,0.290322581,0.4296875,0.185731857
3.36,0.288367546,0.4453125,0.185731857
3.368,0.287390029,0.44921875,0.185731857
3.376,0.285434995,0.46484375,0.184501845
3.384,0.283479961,0.474609375,0.184501845
3.392,0.28054741,0.48046875,0.184501845
3.4,0.278592375,0.48046875,0.184501845
3.408,0.276637341,0.48046875,0.183271833
3.416,0.275659824,0.455078125,0.18204182
3.424,0.27370479,0.4296875,0.180811808
3.432,0.272727273,0.400390625,0.178351784
3.44,0.270772239,0.37109375,0.175891759
3.448,0.269794721,0.3359375,0.174661747
3.456,0.268817204,0.310546875,0.172201722
3.464,0.268817204,0.294921875,0.17097171
3.472,0.268817204,0.28515625,0.168511685
3.48,0.267839687,0.275390625,0.167281673
3.488,0.265884653,0.26953125,0.164821648
3.496,0.263929619,0.265625,0.163591636
3.504,0.260997067,0.265625,0.161131611
3.512,0.259042033,0.265625,0.159901599
3.52,0.256109482,0.26953125,0.157441574
3.528,0.254154448,0.26953125,0.156211562
3.536,0.253176931,0.26953125,0.153751538
3.544,0.254154448,0.279296875,0.152521525
3.552,0.258064516,0.28515625,0.152521525
3.56,0.265884653,0.279296875,0.151291513
3.568,0.279569892,0.279296875,0.151291513
3.576,0.300097752,0.279296875,0.150061501
3.584,0.329423265,0.279296875,0.150061501
3.592,0.366568915,0.28515625,0.150061501
3.6,0.410557185,0.279296875,0.150061501
3.608,0.45943304,0.28515625,0.150061501
3.616,0.511241447,0.28515625,0.150061501
3.624,0.561094819,0.28515625,0.150061501
3.632,0.607038123,0.279296875,0.151291513
3.64,0.647116325,0.279296875,0.151291513
3.648,0.679374389,0.279296875,0.152521525
3.656,0.700879765,0.28515625,0.153751538
3.664,0.712609971,0.28515625,0.15498155
3.672,0.720430108,0.279296875,0.156211562
3.68,0.722385142,0.28515625,0.157441574
3.688,0.718475073,0.28515625,0.157441574
3.696,0.712609971,0.28515625,0.158671587
3.704,0.703812317,0.28515625,0.159901599
3.712,0.695014663,0.28515625,0.162361624
3.72,0.687194526,0.28515625,0.163591636
3.728,0.681329423,0.28515625,0.164821648
3.736,0.677419355,0.28515625,0.166051661
3.744,0.677419355,0.28515625,0.167281673
3.752,0.677419355,0.28515625,0.168511685
3.76,0.679374389,0.291015625,0.168511685
3.768,0.683284457,0.294921875,0.169741697
3.776,0.68914956,0.294921875,0.17097171
3.784,0.69599218,0.291015625,0.17097171
3.792,0.700879765,0.294921875,0.173431734
3.8,0.704789834,0.3046875,0.174661747
3.808,0.705767351,0.310546875,0.177121771
3.816,0.703812317,0.3046875,0.178351784
3.824,0.696969697,0.3046875,0.180811808
3.832,0.687194526,0.3046875,0.18204182
3.84,0.673509286,0.310546875,0.184501845
3.848,0.656891496,0.310546875,0.185731857
3.856,0.640273705,0.3046875,0.18696187
3.864,0.623655914,0.310546875,0.188191882
3.872,0.605083089,0.314453125,0.190651907
3.88,0.586510264,0.3359375,0.191881919
3.888,0.568914956,0.35546875,0.194341943
3.896,0.554252199,0.359375,0.196801968
3.904,0.541544477,0.349609375,0.200492005
3.912,0.532746823,0.35546875,0.20295203
3.92,0.525904203,0.359375,0.206642066
3.928,0.521016618,0.35546875,0.210332103
3.936,0.517106549,0.3359375,0.21402214
3.944,0.514173998,0.3359375,0.217712177
3.952,0.512218964,0.3203125,0.221402214
3.96,0.509286413,0.291015625,0.226322263
3.968,0.505376344,0.291015625,0.2300123
3.976,0.500488759,0.291015625,0.233702337
3.984,0.495601173,0.291015625,0.237392374
3.992,0.488758553,0.294921875,0.242312423
4,0.480938416,0.259765625,0.244772448
4.008,0.47311828,0.205078125,0.248462485
4.016,0.463343109,0.255859375,0.252152522
4.024,0.454545455,0.529296875,0.255842558
4.032,0.443792766,0.923828125,0.259532595
4.04,0.434017595,1.048828125,0.264452645
4.048,0.424242424,0.66015625,0.268142681
4.056,0.416422287,0.400390625,0.271832718
4.064,0.407624633,0.3203125,0.276752768
4.072,0.397849462,0.294921875,0.280442804
4.08,0.389051808,0.30078125,0.284132841
4.088,0.379276637,0.291015625,0.287822878
4.096,0.3714565,0.28515625,0.291512915
4.104,0.362658847,0.279296875,0.295202952
4.112,0.35483871,0.28515625,0.298892989
4.12,0.34799609,0.28515625,0.302583026
4.128,0.34115347,0.294921875,0.306273063
4.136,0.33431085,0.30078125,0.3099631
4.144,0.328445748,0.3046875,0.313653137
4.152,0.324535679,0.310546875,0.317343173
4.16,0.320625611,0.310546875,0.32103321
4.168,0.31769306,0.310546875,0.323493235
4.176,0.313782991,0.310546875,0.327183272
4.184,0.31085044,0.310546875,0.330873309
4.192,0.306940371,0.314453125,0.334563346
4.2,0.30400782,0.3203125,0.338253383
4.208,0.300097752,0.32421875,0.341943419
4.216,0.2971652,0.32421875,0.346863469
4.224,0.294232649,0.3359375,0.350553506
4.232,0.291300098,0.330078125,0.354243542
4.24,0.287390029,0.3359375,0.357933579
4.248,0.285434995,0.3359375,0.361623616
4.256,0.283479961,0.33984375,0.365313653
4.264,0.281524927,0.345703125,0.367773678
4.272,0.278592375,0.349609375,0.371463715
4.28,0.275659824,0.359375,0.375153752
4.288,0.272727273,0.365234375,0.378843788
4.296,0.270772239,0.375,0.382533825
4.304,0.267839687,0.380859375,0.386223862
4.312,0.264907136,0.384765625,0.389913899
4.32,0.262952102,0.39453125,0.392373924
4.328,0.26001955,0.404296875,0.396063961
4.336,0.258064516,0.404296875,0.398523985
4.344,0.256109482,0.419921875,0.402214022
4.352,0.255131965,0.4296875,0.405904059
4.36,0.254154448,0.439453125,0.409594096
4.368,0.252199413,0.44921875,0.412054121
4.376,0.250244379,0.455078125,0.415744157
4.384,0.248289345,0.474609375,0.418204182
4.392,0.246334311,0.484375,0.421894219
4.4,0.24340176,0.484375,0.423124231
4.408,0.241446725,0.474609375,0.425584256
4.416,0.239491691,0.44921875,0.426814268
4.424,0.23655914,0.419921875,0.42804428
4.432,0.234604106,0.384765625,0.429274293
4.44,0.232649071,0.359375,0.430504305
4.448,0.232649071,0.330078125,0.431734317
4.456,0.232649071,0.310546875,0.431734317
4.464,0.231671554,0.291015625,0.431734317
4.472,0.230694037,0.28515625,0.43296433
4.48,0.22971652,0.279296875,0.43296433
4.488,0.228739003,0.26953125,0.43296433
4.496,0.226783969,0.265625,0.434194342
4.504,0.224828935,0.26953125,0.434194342
4.512,0.2228739,0.26953125,0.435424354
4.52,0.219941349,0.26953125,0.436654367
4.528,0.217986315,0.275390625,0.437884379
4.536,0.216031281,0.279296875,0.440344403
4.544,0.217008798,0.279296875,0.441574416
4.552,0.220918866,0.279296875,0.44403444
4.56,0.228739003,0.28515625,0.447724477
4.568,0.24340176,0.28515625,0.450184502
4.576,0.264907136,0.28515625,0.452644526
4.584,0.295210166,0.279296875,0.456334563
4.592,0.333333333,0.28515625,0.4600246
4.6,0.379276637,0.28515625,0.464944649
4.608,0.42913001,0.28515625,0.468634686
4.616,0.481915934,0.28515625,0.473554736
4.624,0.532746823,0.291015625,0.477244772
4.632,0.579667644,0.294921875,0.480934809
4.64,0.620723363,0.291015625,0.484624846
4.648,0.649071359,0.28515625,0.488314883
4.656,0.668621701,0.291015625,0.493234932
4.664,0.683284457,0.28515625,0.496924969
4.672,0.691104594,0.28515625,0.501845018
4.68,0.691104594,0.291015625,0.506765068
4.688,0.686217009,0.291015625,0.512915129
4.696,0.676441838,0.291015625,0.517835178
4.704,0.664711632,0.291015625,0.52398524
4.712,0.65200391,0.291015625,0.531365314
4.72,0.640273705,0.294921875,0.536285363
4.728,0.631476051,0.294921875,0.542435424
4.736,0.624633431,0.294921875,0.546125461
4.744,0.62170088,0.291015625,0.55104551
4.752,0.619745846,0.294921875,0.55596556
4.76,0.620723363,0.30078125,0.560885609
4.768,0.624633431,0.30078125,0.56703567
4.776,0.629521017,0.291015625,0.57195572
4.784,0.635386119,0.28515625,0.575645756
4.792,0.640273705,0.294921875,0.580565806
4.8,0.643206256,0.3046875,0.584255843
4.808,0.642228739,0.3046875,0.589175892
4.816,0.638318671,0.3046875,0.592865929
4.824,0.631476051,0.310546875,0.597785978
4.832,0.619745846,0.330078125,0.602706027
4.84,0.611925709,0.349609375,0.607626076
4.848,0.607038123,0.359375,0.613776138
4.856,0.597262952,0.35546875,0.619926199
4.864,0.583577713,0.35546875,0.626076261
4.872,0.567937439,0.359375,0.632226322
4.88,0.554252199,0.359375,0.638376384
4.888,0.541544477,0.345703125,0.644526445
4.896,0.530791789,0.3359375,0.649446494
4.904,0.522971652,0.3203125,0.655596556
4.912,0.518084066,0.294921875,0.660516605
4.92,0.514173998,0.28515625,0.666666667
4.928,0.512218964,0.28515625,0.672816728
4.936,0.511241447,0.291015625,0.677736777
4.944,0.51026393,0.28515625,0.682656827
4.952,0.508308895,0.25,0.687576876
4.96,0.506353861,0.205078125,0.692496925
4.968,0.504398827,0.265625,0.696186962
4.976,0.500488759,0.560546875,0.701107011
4.984,0.495601173,0.935546875,0.70602706
4.992,0.48973607,1.03515625,0.709717097
5,0.481915934,0.625,0.714637146
5.008,0.474095797,0.375,0.719557196
5.016,0.465298143,0.30078125,0.723247232
5.024,0.455522972,0.279296875,0.726937269
5.032,0.445747801,0.291015625,0.730627306
5.04,0.43597263,0.291015625,0.733087331
5.048,0.427174976,0.28515625,0.736777368
5.056,0.419354839,0.28515625,0.739237392
5.064,0.410557185,0.28515625,0.741697417
5.072,0.400782014,0.28515625,0.744157442
5.08,0.392961877,0.28515625,0.746617466
5.088,0.384164223,0.291015625,0.747847478
5.096,0.377321603,0.294921875,0.750307503
5.104,0.370478983,0.30078125,0.751537515
5.112,0.364613881,0.3046875,0.752767528
5.12,0.358748778,0.3046875,0.75399754
5.128,0.353861193,0.3046875,0.75399754
5.136,0.348973607,0.310546875,0.755227552
5.144,0.345063539,0.310546875,0.755227552
5.152,0.34115347,0.310546875,0.755227552
5.16,0.338220919,0.3203125,0.755227552
5.168,0.335288368,0.32421875,0.75399754
5.176,0.332355816,0.330078125,0.75399754
5.184,0.328445748,0.3359375,0.75399754
5.192,0.326490714,0.3359375,0.752767528
5.2,0.323558162,0.33984375,0.752767528
5.208,0.321603128,0.345703125,0.751537515
5.216,0.319648094,0.35546875,0.750307503
5.224,0.31769306,0.359375,0.750307503
5.232,0.316715543,0.359375,0.747847478
5.24,0.314760508,0.365234375,0.746617466
5.248,0.314760508,0.375,0.745387454
5.256,0.313782991,0.380859375,0.742927429
5.264,0.313782991,0.380859375,0.741697417
5.272,0.312805474,0.390625,0.739237392
5.28,0.311827957,0.400390625,0.73800738
5.288,0.31085044,0.41015625,0.736777368
5.296,0.31085044,0.419921875,0.733087331
5.304,0.31085044,0.4296875,0.730627306
5.312,0.31085044,0.4453125,0.726937269
5.32,0.31085044,0.44921875,0.724477245
5.328,0.31085044,0.4609375,0.719557196
5.336,0.31085044,0.470703125,0.714637146
5.344,0.31085044,0.474609375,0.709717097
5.352,0.31085044,0.474609375,0.703567036
5.36,0.311827957,0.455078125,0.698646986
5.368,0.312805474,0.435546875,0.692496925
5.376,0.312805474,0.400390625,0.686346863
5.384,0.312805474,0.37109375,0.681426814
5.392,0.312805474,0.33984375,0.67404674
5.4,0.312805474,0.314453125,0.667896679
5.408,0.311827957,0.294921875,0.659286593
5.416,0.31085044,0.28515625,0.651906519
5.424,0.31085044,0.26953125,0.644526445
5.432,0.309872923,0.265625,0.637146371
5.44,0.308895406,0.265625,0.629766298
5.448,0.308895406,0.265625,0.623616236
5.456,0.308895406,0.265625,0.61500615
5.464,0.308895406,0.26953125,0.607626076
5.472,0.308895406,0.26953125,0.59901599
5.48,0.308895406,0.275390625,0.590405904
5.488,0.309872923,0.279296875,0.581795818
5.496,0.312805474,0.275390625,0.574415744
5.504,0.318670577,0.279296875,0.565805658
5.512,0.329423265,0.279296875,0.557195572
5.52,0.347018573,0.28515625,0.549815498
5.528,0.3714565,0.28515625,0.541205412
5.536,0.403714565,0.279296875,0.533825338
5.544,0.443792766,0.279296875,0.527675277
5.552,0.482893451,0.28515625,0.520295203
5.56,0.521994135,0.28515625,0.512915129
5.568,0.568914956,0.275390625,0.506765068
5.576,0.616813294,0.279296875,0.500615006
5.584,0.662756598,0.28515625,0.494464945
5.592,0.7028348,0.279296875,0.488314883
5.6,0.736070381,0.28515625,0.483394834
5.608,0.759530792,0.279296875,0.478474785
5.616,0.774193548,0.28515625,0.472324723
5.624,0.782013685,0.28515625,0.467404674
5.632,0.782013685,0.279296875,0.461254613
5.64,0.778103617,0.279296875,0.455104551
5.648,0.77028348,0.279296875,0.44895449
5.656,0.761485826,0.28515625,0.442804428
5.664,0.751710655,0.279296875,0.436654367
5.672,0.741935484,0.28515625,0.430504305
5.68,0.734115347,0.28515625,0.424354244
5.688,0.728250244,0.28515625,0.419434194
5.696,0.72629521,0.28515625,0.413284133
5.704,0.725317693,0.291015625,0.407134071
5.712,0.728250244,0.294921875,0.402214022
5.72,0.732160313,0.30078125,0.396063961
5.728,0.736070381,0.294921875,0.391143911
5.736,0.740957967,0.294921875,0.38499385
5.744,0.742913001,0.30078125,0.380073801
5.752,0.742913001,0.30078125,0.373923739
5.76,0.740957967,0.30078125,0.36900369
5.768,0.736070381,0.30078125,0.362853629
5.776,0.727272727,0.30078125,0.357933579
5.784,0.716520039,0.310546875,0.351783518
5.792,0.7028348,0.32421875,0.346863469
5.8,0.686217009,0.345703125,0.341943419
5.808,0.669599218,0.35546875,0.335793358
5.816,0.652981427,0.349609375,0.330873309
5.824,0.636363636,0.345703125,0.32595326
5.832,0.62170088,0.349609375,0.32103321
5.84,0.608993157,0.35546875,0.316113161
5.848,0.599217986,0.3359375,0.312423124
5.856,0.591397849,0.330078125,0.308733087
5.864,0.586510264,0.310546875,0.306273063
5.872,0.582600196,0.28515625,0.302583026
5.88,0.580645161,0.28515625,0.300123001
5.888,0.578690127,0.28515625,0.296432964
5.896,0.57771261,0.291015625,0.29397294
5.904,0.574780059,0.291015625,0.290282903
5.912,0.571847507,0.265625,0.287822878
5.92,0.567937439,0.1953125,0.284132841
5.928,0.563049853,0.23046875,0.281672817
5.936,0.556207234,0.439453125,0.279212792
5.944,0.550342131,0.865234375,0.275522755
5.952,0.543499511,1.08984375,0.273062731
5.96,0.536656891,0.75390625,0.270602706
5.968,0.527859238,0.4453125,0.266912669
5.976,0.519061584,0.330078125,0.263222632
5.984,0.51026393,0.30078125,0.259532595
5.992,0.500488759,0.291015625,0.255842558
6,0.490713587,0.291015625,0.252152522
6.008,0.480938416,0.28515625,0.249692497
6.016,0.471163245,0.275390625,0.247232472
6.024,0.462365591,0.275390625,0.244772448
6.032,0.453567937,0.28515625,0.242312423
6.04,0.444770283,0.28515625,0.238622386
6.048,0.437927664,0.28515625,0.236162362
6.056,0.432062561,0.28515625,0.232472325
6.064,0.425219941,0.28515625,0.228782288
6.072,0.419354839,0.294921875,0.225092251
6.08,0.413489736,0.30078125,0.222632226
6.088,0.407624633,0.30078125,0.218942189
6.096,0.402737048,0.30078125,0.215252153
6.104,0.397849462,0.3046875,0.211562116
6.112,0.393939394,0.3046875,0.207872079
6.12,0.390029326,0.310546875,0.204182042
6.128,0.386119257,0.314453125,0.200492005
6.136,0.382209189,0.3203125,0.19803198
6.144,0.379276637,0.32421875,0.194341943
6.152,0.377321603,0.3359375,0.190651907
6.16,0.374389052,0.3359375,0.188191882
6.168,0.3714565,0.345703125,0.185731857
6.176,0.368523949,0.345703125,0.18204182
6.184,0.366568915,0.35546875,0.179581796
6.192,0.363636364,0.359375,0.178351784
6.2,0.361681329,0.359375,0.175891759
6.208,0.358748778,0.37109375,0.174661747
6.216,0.356793744,0.375,0.173431734
6.224,0.353861193,0.380859375,0.17097171
6.232,0.351906158,0.390625,0.169741697
6.24,0.349951124,0.404296875,0.168511685
6.248,0.34799609,0.404296875,0.166051661
6.256,0.347018573,0.419921875,0.163591636
6.264,0.345063539,0.4296875,0.162361624
6.272,0.342130987,0.4453125,0.158671587
6.28,0.340175953,0.44921875,0.156211562
6.288,0.337243402,0.46484375,0.153751538
6.296,0.335288368,0.474609375,0.150061501
6.304,0.332355816,0.48046875,0.147601476
6.312,0.330400782,0.474609375,0.143911439
6.32,0.329423265,0.46484375,0.140221402
6.328,0.327468231,0.4453125,0.137761378
6.336,0.325513196,0.416015625,0.134071341
6.344,0.324535679,0.384765625,0.130381304
6.352,0.323558162,0.35546875,0.126691267
6.36,0.322580645,0.3203125,0.124231242
6.368,0.320625611,0.294921875,0.120541205
6.376,0.319648094,0.28515625,0.116851169
6.384,0.31769306,0.275390625,0.114391144
6.392,0.315738025,0.26953125,0.111931119
6.4,0.313782991,0.26953125,0.109471095
6.408,0.311827957,0.265625,0.10701107
6.416,0.309872923,0.265625,0.104551046
6.424,0.306940371,0.265625,0.102091021
6.432,0.304985337,0.26953125,0.098400984
6.44,0.303030303,0.275390625,0.095940959
6.448,0.302052786,0.26953125,0.093480935
6.456,0.303030303,0.279296875,0.092250923
6.464,0.306940371,0.28515625,0.089790898
6.472,0.316715543,0.28515625,0.088560886
6.48,0.332355816,0.279296875,0.087330873
6.488,0.356793744,0.28515625,0.086100861
6.496,0.389051808,0.28515625,0.086100861
6.504,0.430107527,0.28515625,0.084870849
6.512,0.477028348,0.28515625,0.084870849
6.52,0.527859238,0.28515625,0.086100861
6.528,0.579667644,0.28515625,0.086100861
6.536,0.630498534,0.28515625,0.086100861
6.544,0.670576735,0.28515625,0.087330873
6.552,0.7028348,0.28515625,0.087330873
6.56,0.731182796,0.291015625,0.088560886
6.568,0.753665689,0.28515625,0.089790898
6.576,0.769305963,0.291015625,0.09102091
6.584,0.7771261,0.291015625,0.09102091
6.592,0.778103617,0.291015625,0.092250923
6.6,0.775171065,0.291015625,0.093480935
6.608,0.768328446,0.294921875,0.094710947
6.616,0.761485826,0.294921875,0.095940959
6.624,0.753665689,0.294921875,0.097170972
6.632,0.747800587,0.294921875,0.098400984
6.64,0.743890518,0.294921875,0.099630996
6.648,0.740957967,0.30078125,0.100861009
6.656,0.73998045,0.30078125,0.102091021
6.664,0.741935484,0.30078125,0.103321033
6.672,0.746823069,0.30078125,0.104551046
6.68,0.752688172,0.30078125,0.105781058
6.688,0.760508309,0.3046875,0.10701107
6.696,0.767350929,0.3046875,0.108241082
6.704,0.772238514,0.30078125,0.109471095
6.712,0.775171065,0.30078125,0.110701107
6.72,0.774193548,0.30078125,0.111931119
6.728,0.77028348,0.3046875,0.113161132
6.736,0.762463343,0.30078125,0.113161132
6.744,0.750733138,0.310546875,0.114391144
6.752,0.738025415,0.310546875,0.115621156
6.76,0.720430108,0.310546875,0.116851169
6.768,0.700879765,0.310546875,0.118081181
6.776,0.679374389,0.310546875,0.119311193
6.784,0.657869013,0.310546875,0.119311193
6.792,0.636363636,0.310546875,0.120541205
6.8,0.617790811,0.310546875,0.121771218
6.808,0.602150538,0.3203125,0.12300123
6.816,0.589442815,0.345703125,0.12300123
6.824,0.579667644,0.359375,0.124231242
6.832,0.572825024,0.365234375,0.125461255
6.84,0.568914956,0.359375,0.126691267
6.848,0.565004888,0.359375,0.126691267
6.856,0.563049853,0.365234375,0.127921279
6.864,0.561094819,0.359375,0.129151292
6.872,0.559139785,0.345703125,0.130381304
6.88,0.556207234,0.3359375,0.130381304
6.888,0.541544477,0.314453125,0.131611316
6.896,0.520039101,0.294921875,0.132841328
6.904,0.506353861,0.291015625,0.134071341
6.912,0.494623656,0.294921875,0.134071341
6.92,0.484848485,0.30078125,0.135301353
6.928,0.474095797,0.291015625,0.136531365
6.936,0.464320626,0.234375,0.137761378
6.944,0.455522972,0.201171875,0.137761378
6.952,0.445747801,0.279296875,0.13899139
6.96,0.43597263,0.615234375,0.13899139
6.968,0.425219941,1.03515625,0.140221402
6.976,0.41544477,1.109375,0.141451415
6.984,0.404692082,0.615234375,0.141451415
6.992,0.394916911,0.380859375,0.142681427
7,0.38514174,0.3203125,0.143911439
7.008,0.376344086,0.294921875,0.146371464
7.016,0.368523949,0.30078125,0.147601476
7.024,0.360703812,0.28515625,0.148831488
7.032,0.352883675,0.28515625,0.150061501
7.04,0.347018573,0.279296875,0.151291513
7.048,0.342130987,0.28515625,0.152521525
7.056,0.337243402,0.28515625,0.153751538
7.064,0.332355816,0.28515625,0.15498155
7.072,0.327468231,0.294921875,0.15498155
7.08,0.322580645,0.30078125,0.156211562
7.088,0.318670577,0.30078125,0.156211562
7.096,0.314760508,0.3046875,0.156211562
7.104,0.31085044,0.310546875,0.156211562
7.112,0.307917889,0.310546875,0.156211562
7.12,0.30400782,0.310546875,0.15498155
7.128,0.301075269,0.310546875,0.15498155
7.136,0.299120235,0.314453125,0.15498155
7.144,0.2971652,0.32421875,0.15498155
7.152,0.295210166,0.3359375,0.15498155
7.16,0.293255132,0.3359375,0.156211562
7.168,0.290322581,0.3359375,0.156211562
7.176,0.287390029,0.3359375,0.156211562
7.184,0.285434995,0.345703125,0.156211562
7.192,0.283479961,0.349609375,0.157441574
7.2,0.28054741,0.35546875,0.157441574
7.208,0.278592375,0.35546875,0.157441574
7.216,0.276637341,0.359375,0.157441574
7.224,0.27370479,0.37109375,0.158671587
7.232,0.270772239,0.375,0.158671587
7.24,0.268817204,0.380859375,0.158671587
7.248,0.26686217,0.384765625,0.158671587
7.256,0.264907136,0.39453125,0.159901599
7.264,0.262952102,0.404296875,0.159901599
7.272,0.260997067,0.42578125,0.159901599
7.28,0.258064516,0.4296875,0.159901599
7.288,0.256109482,0.439453125,0.161131611
7.296,0.253176931,0.44921875,0.161131611
7.304,0.250244379,0.4609375,0.161131611
7.312,0.248289345,0.470703125,0.161131611
7.32,0.246334311,0.474609375,0.161131611
7.328,0.244379277,0.474609375,0.159901599
7.336,0.242424242,0.48046875,0.159901599
7.344,0.241446725,0.474609375,0.159901599
7.352,0.241446725,0.44921875,0.159901599
7.36,0.241446725,0.42578125,0.158671587
7.368,0.240469208,0.390625,0.158671587
7.376,0.239491691,0.359375,0.157441574
7.384,0.239491691,0.330078125,0.156211562
7.392,0.238514174,0.3046875,0.15498155
7.4,0.237536657,0.294921875,0.153751538
7.408,0.237536657,0.28515625,0.151291513
7.416,0.23655914,0.275390625,0.150061501
7.424,0.234604106,0.26953125,0.147601476
7.432,0.232649071,0.275390625,0.146371464
7.44,0.230694037,0.26953125,0.143911439
7.448,0.228739003,0.275390625,0.142681427
7.456,0.227761486,0.275390625,0.141451415
7.464,0.226783969,0.279296875,0.140221402
7.472,0.226783969,0.275390625,0.13899139
7.48,0.228739003,0.275390625,0.137761378
7.488,0.23655914,0.26953125,0.136531365
7.496,0.250244379,0.28515625,0.136531365
7.504,0.271749756,0.279296875,0.136531365
7.512,0.302052786,0.28515625,0.135301353
7.52,0.34115347,0.279296875,0.135301353
7.528,0.387096774,0.28515625,0.135301353
7.536,0.438905181,0.28515625,0.135301353
7.544,0.485826002,0.28515625,0.136531365
7.552,0.528836755,0.28515625,0.136531365
7.56,0.574780059,0.28515625,0.136531365
7.568,0.619745846,0.28515625,0.137761378
7.576,0.656891496,0.28515625,0.13899139
7.584,0.687194526,0.279296875,0.140221402
7.592,0.707722385,0.28515625,0.141451415
7.6,0.71945259,0.28515625,0.143911439
7.608,0.724340176,0.28515625,0.145141451
7.616,0.722385142,0.291015625,0.147601476
7.624,0.717497556,0.294921875,0.148831488
7.632,0.709677419,0.28515625,0.150061501
7.64,0.701857283,0.28515625,0.152521525
7.648,0.694037146,0.291015625,0.153751538
7.656,0.687194526,0.291015625,0.15498155
7.664,0.684261975,0.294921875,0.156211562
7.672,0.683284457,0.30078125,0.157441574
7.68,0.684261975,0.294921875,0.158671587
7.688,0.688172043,0.30078125,0.158671587
7.696,0.694037146,0.30078125,0.159901599
7.704,0.700879765,0.30078125,0.161131611
7.712,0.707722385,0.30078125,0.161131611
7.72,0.714565005,0.3046875,0.162361624
7.728,0.718475073,0.3046875,0.162361624
7.736,0.720430108,0.3046875,0.163591636
7.744,0.717497556,0.310546875,0.163591636
7.752,0.711632454,0.310546875,0.164821648
7.76,0.7028348,0.310546875,0.164821648
7.768,0.690127077,0.310546875,0.164821648
7.776,0.673509286,0.310546875,0.166051661
7.784,0.654936461,0.310546875,0.166051661
7.792,0.634408602,0.314453125,0.166051661
7.8,0.612903226,0.314453125,0.166051661
7.808,0.592375367,0.32421875,0.167281673
7.816,0.573802542,0.32421875,0.167281673
7.824,0.557184751,0.32421875,0.168511685
7.832,0.543499511,0.32421875,0.169741697
7.84,0.532746823,0.3203125,0.17097171
7.848,0.525904203,0.32421875,0.172201722
7.856,0.520039101,0.32421875,0.173431734
7.864,0.516129032,0.32421875,0.174661747
7.872,0.513196481,0.330078125,0.175891759
7.88,0.511241447,0.3359375,0.178351784
7.888,0.509286413,0.359375,0.179581796
7.896,0.507331378,0.375,0.18204182
7.904,0.50342131,0.37109375,0.183271833
7.912,0.499511241,0.359375,0.185731857
7.92,0.494623656,0.37109375,0.18696187
7.928,0.487781036,0.37109375,0.188191882
7.936,0.479960899,0.375,0.189421894
7.944,0.472140762,0.345703125,0.190651907
7.952,0.464320626,0.3359375,0.191881919
7.96,0.455522972,0.3203125,0.193111931
7.968,0.445747801,0.30078125,0.193111931
7.976,0.434995112,0.3046875,0.194341943
7.984,0.424242424,0.3046875,0.194341943
7.992,0.413489736,0.3046875,0.195571956
8,0.403714565,0.294921875,0.195571956
8.008,0.393939394,0.234375,0.195571956
8.016,0.384164223,0.205078125,0.195571956
8.024,0.374389052,0.28515625,0.196801968
8.032,0.365591398,0.62890625,0.196801968
8.04,0.358748778,1.029296875,0.196801968
8.048,0.352883675,1.103515625,0.196801968
8.056,0.347018573,0.595703125,0.196801968
8.064,0.34115347,0.380859375,0.196801968
8.072,0.335288368,0.314453125,0.196801968
8.08,0.329423265,0.294921875,0.196801968
8.088,0.324535679,0.30078125,0.196801968
8.096,0.319648094,0.291015625,0.196801968
8.104,0.315738025,0.291015625,0.196801968
8.112,0.311827957,0.291015625,0.196801968
8.12,0.307917889,0.291015625,0.196801968
8.128,0.304985337,0.28515625,0.196801968
8.136,0.302052786,0.291015625,0.196801968
8.144,0.300097752,0.294921875,0.196801968
8.152,0.299120235,0.30078125,0.196801968
8.16,0.296187683,0.30078125,0.196801968
8.168,0.294232649,0.3046875,0.196801968
8.176,0.291300098,0.3046875,0.196801968
8.184,0.289345064,0.3046875,0.19803198
8.192,0.286412512,0.310546875,0.19803198
8.2,0.283479961,0.3203125,0.199261993
8.208,0.28054741,0.3203125,0.200492005
8.216,0.278592375,0.330078125,0.201722017
8.224,0.276637341,0.3359375,0.204182042
8.232,0.27370479,0.3359375,0.205412054
8.24,0.272727273,0.3359375,0.206642066
8.248,0.270772239,0.3359375,0.209102091
8.256,0.268817204,0.345703125,0.210332103
8.264,0.265884653,0.35546875,0.212792128
8.272,0.262952102,0.359375,0.215252153
8.28,0.26001955,0.359375,0.217712177
8.288,0.257086999,0.359375,0.221402214
8.296,0.254154448,0.365234375,0.223862239
8.304,0.252199413,0.375,0.226322263
8.312,0.249266862,0.380859375,0.2300123
8.32,0.246334311,0.390625,0.232472325
8.328,0.24340176,0.39453125,0.234932349
8.336,0.241446725,0.400390625,0.238622386
8.344,0.239491691,0.416015625,0.241082411
8.352,0.238514174,0.42578125,0.244772448
8.36,0.23655914,0.4296875,0.248462485
8.368,0.233626588,0.44921875,0.252152522
8.376,0.230694037,0.455078125,0.255842558
8.384,0.228739003,0.470703125,0.258302583
8.392,0.226783969,0.474609375,0.260762608
8.4,0.224828935,0.48046875,0.263222632
8.408,0.221896383,0.484375,0.265682657
8.416,0.219941349,0.474609375,0.266912669
8.424,0.218963832,0.455078125,0.269372694
8.432,0.217008798,0.435546875,0.270602706
8.44,0.217008798,0.404296875,0.271832718
8.448,0.217008798,0.37109375,0.273062731
8.456,0.216031281,0.345703125,0.274292743
8.464,0.215053763,0.314453125,0.274292743
8.472,0.213098729,0.3046875,0.275522755
8.48,0.211143695,0.291015625,0.275522755
8.488,0.209188661,0.28515625,0.275522755
8.496,0.206256109,0.279296875,0.276752768
8.504,0.204301075,0.275390625,0.279212792
8.512,0.201368524,0.279296875,0.280442804
8.52,0.19941349,0.28515625,0.282902829
8.528,0.197458456,0.275390625,0.286592866
8.536,0.196480938,0.279296875,0.289052891
8.544,0.198435973,0.279296875,0.291512915
8.552,0.201368524,0.28515625,0.295202952
8.56,0.207233627,0.28515625,0.298892989
8.568,0.217986315,0.291015625,0.302583026
8.576,0.23655914,0.28515625,0.306273063
8.584,0.261974585,0.291015625,0.3099631
8.592,0.296187683,0.291015625,0.313653137
8.6,0.339198436,0.28515625,0.318573186
8.608,0.388074291,0.28515625,0.322263223
8.616,0.440860215,0.28515625,0.32595326
8.624,0.494623656,0.28515625,0.330873309
8.632,0.54740958,0.291015625,0.334563346
8.64,0.588465298,0.291015625,0.339483395
8.648,0.622678397,0.294921875,0.343173432
8.656,0.65200391,0.28515625,0.348093481
8.664,0.675464321,0.291015625,0.351783518
8.672,0.690127077,0.294921875,0.356703567
8.68,0.696969697,0.294921875,0.361623616
8.688,0.696969697,0.3046875,0.366543665
8.696,0.691104594,0.30078125,0.371463715
8.704,0.681329423,0.291015625,0.376383764
8.712,0.670576735,0.30078125,0.382533825
8.72,0.659824047,0.3046875,0.387453875
8.728,0.650048876,0.30078125,0.391143911
8.736,0.643206256,0.30078125,0.396063961
8.744,0.638318671,0.30078125,0.399753998
8.752,0.635386119,0.30078125,0.403444034
8.76,0.636363636,0.3046875,0.408364084
8.768,0.640273705,0.30078125,0.412054121
8.776,0.646138807,0.3046875,0.415744157
8.784,0.652981427,0.3046875,0.419434194
8.792,0.659824047,0.30078125,0.423124231
8.8,0.66568915,0.3046875,0.426814268
8.808,0.669599218,0.3046875,0.430504305
8.816,0.670576735,0.3046875,0.434194342
8.824,0.667644184,0.310546875,0.439114391
8.832,0.659824047,0.310546875,0.442804428
8.84,0.650048876,0.3046875,0.447724477
8.848,0.637341153,0.310546875,0.453874539
8.856,0.620723363,0.310546875,0.458794588
8.864,0.602150538,0.310546875,0.463714637
8.872,0.582600196,0.314453125,0.469864699
8.88,0.56402737,0.3203125,0.474784748
8.888,0.545454545,0.32421875,0.479704797
8.896,0.528836755,0.3359375,0.485854859
8.904,0.516129032,0.35546875,0.490774908
8.912,0.505376344,0.359375,0.496924969
8.92,0.497556207,0.359375,0.503075031
8.928,0.492668622,0.359375,0.509225092
8.936,0.498533724,0.365234375,0.515375154
8.944,0.509286413,0.37109375,0.521525215
8.952,0.514173998,0.35546875,0.527675277
8.96,0.516129032,0.33984375,0.533825338
8.968,0.516129032,0.330078125,0.5399754
8.976,0.513196481,0.3046875,0.544895449
8.984,0.51026393,0.294921875,0.55104551
8.992,0.505376344,0.291015625,0.557195572
9,0.499511241,0.291015625,0.563345633
9.008,0.492668622,0.30078125,0.569495695
9.016,0.483870968,0.279296875,0.575645756
9.024,0.475073314,0.205078125,0.581795818
9.032,0.465298143,0.234375,0.587945879
9.04,0.457478006,0.435546875,0.592865929
9.048,0.448680352,0.814453125,0.597785978
9.056,0.439882698,1.029296875,0.602706027
9.064,0.430107527,0.75,0.607626076
9.072,0.420332356,0.42578125,0.611316113
9.08,0.411534702,0.314453125,0.616236162
9.088,0.402737048,0.275390625,0.621156212
9.096,0.393939394,0.291015625,0.627306273
9.104,0.386119257,0.294921875,0.63099631
9.112,0.37829912,0.28515625,0.635916359
9.12,0.3714565,0.28515625,0.639606396
9.128,0.364613881,0.28515625,0.643296433
9.136,0.358748778,0.28515625,0.64698647
9.144,0.353861193,0.291015625,0.650676507
9.152,0.349951124,0.291015625,0.654366544
9.16,0.346041056,0.291015625,0.658056581
9.168,0.342130987,0.294921875,0.661746617
9.176,0.338220919,0.30078125,0.665436654
9.184,0.335288368,0.30078125,0.669126691
9.192,0.331378299,0.30078125,0.672816728
9.2,0.327468231,0.310546875,0.676506765
9.208,0.323558162,0.314453125,0.680196802
9.216,0.320625611,0.310546875,0.682656827
9.224,0.31769306,0.3203125,0.686346863
9.232,0.314760508,0.330078125,0.688806888
9.24,0.312805474,0.3359375,0.692496925
9.248,0.31085044,0.3359375,0.697416974
9.256,0.308895406,0.33984375,0.701107011
9.264,0.306940371,0.349609375,0.704797048
9.272,0.304985337,0.35546875,0.708487085
9.28,0.302052786,0.359375,0.712177122
9.288,0.299120235,0.359375,0.714637146
9.296,0.296187683,0.359375,0.718327183
9.304,0.294232649,0.365234375,0.723247232
9.312,0.291300098,0.375,0.726937269
9.32,0.289345064,0.380859375,0.731857319
9.328,0.287390029,0.390625,0.735547355
9.336,0.285434995,0.39453125,0.740467405
9.344,0.285434995,0.404296875,0.744157442
9.352,0.285434995,0.416015625,0.747847478
9.36,0.284457478,0.4296875,0.750307503
9.368,0.284457478,0.439453125,0.75399754
9.376,0.283479961,0.44921875,0.755227552
9.384,0.281524927,0.455078125,0.757687577
9.392,0.28054741,0.470703125,0.760147601
9.4,0.278592375,0.48046875,0.761377614
9.408,0.276637341,0.484375,0.762607626
9.416,0.274682307,0.490234375,0.763837638
9.424,0.272727273,0.474609375,0.765067651
9.432,0.271749756,0.46484375,0.765067651
9.44,0.270772239,0.439453125,0.765067651
9.448,0.270772239,0.41015625,0.763837638
9.456,0.270772239,0.375,0.763837638
9.464,0.268817204,0.345703125,0.762607626
9.472,0.267839687,0.314453125,0.761377614
9.48,0.265884653,0.30078125,0.761377614
9.488,0.263929619,0.28515625,0.758917589
9.496,0.261974585,0.28515625,0.756457565
9.504,0.26001955,0.28515625,0.75399754
9.512,0.258064516,0.279296875,0.751537515
9.52,0.256109482,0.275390625,0.749077491
9.528,0.254154448,0.279296875,0.746617466
9.536,0.253176931,0.28515625,0.744157442
9.544,0.253176931,0.279296875,0.741697417
9.552,0.252199413,0.279296875,0.739237392
9.56,0.253176931,0.28515625,0.736777368
9.568,0.255131965,0.291015625,0.734317343
9.576,0.260997067,0.28515625,0.730627306
9.584,0.271749756,0.28515625,0.728167282
9.592,0.288367546,0.291015625,0.725707257
9.6,0.313782991,0.294921875,0.72201722
9.608,0.346041056,0.291015625,0.719557196
9.616,0.386119257,0.291015625,0.715867159
9.624,0.431085044,0.291015625,0.713407134
9.632,0.480938416,0.291015625,0.710947109
9.64,0.524926686,0.294921875,0.708487085
9.648,0.56402737,0.291015625,0.70602706
9.656,0.605083089,0.291015625,0.702337023
9.664,0.643206256,0.291015625,0.698646986
9.672,0.674486804,0.291015625,0.69495695
9.68,0.696969697,0.291015625,0.692496925
9.688,0.711632454,0.291015625,0.688806888
9.696,0.718475073,0.294921875,0.686346863
9.704,0.718475073,0.30078125,0.683886839
9.712,0.713587488,0.294921875,0.680196802
9.72,0.705767351,0.294921875,0.676506765
9.728,0.69599218,0.30078125,0.672816728
9.736,0.686217009,0.30078125,0.669126691
9.744,0.677419355,0.294921875,0.664206642
9.752,0.669599218,0.294921875,0.660516605
9.76,0.664711632,0.294921875,0.656826568
9.768,0.661779081,0.30078125,0.653136531
9.776,0.662756598,0.3046875,0.649446494
9.784,0.66568915,0.30078125,0.644526445
9.792,0.671554252,0.3046875,0.640836408
9.8,0.677419355,0.3046875,0.635916359
9.808,0.684261975,0.3046875,0.63099631
9.816,0.68914956,0.3046875,0.627306273
9.824,0.692082111,0.3046875,0.623616236
9.832,0.692082111,0.310546875,0.618696187
9.84,0.68914956,0.3046875,0.61500615
9.848,0.68230694,0.310546875,0.611316113
9.856,0.673509286,0.310546875,0.607626076
9.864,0.660801564,0.310546875,0.603936039
9.872,0.647116325,0.330078125,0.601476015
9.88,0.631476051,0.35546875,0.597785978
9.888,0.615835777,0.365234375,0.595325953
9.896,0.601173021,0.359375,0.592865929
9.904,0.589442815,0.35546875,0.590405904
9.912,0.578690127,0.359375,0.586715867
9.92,0.571847507,0.359375,0.584255843
9.928,0.566959922,0.345703125,0.581795818
9.936,0.563049853,0.3359375,0.578105781
9.944,0.561094819,0.32421875,0.575645756
9.952,0.560117302,0.294921875,0.573185732
9.96,0.560117302,0.28515625,0.569495695
9.968,0.560117302,0.28515625,0.565805658
9.976,0.560117302,0.294921875,0.562115621
9.984,0.559139785,0.294921875,0.557195572
9.992,0.556207234,0.275390625,0.553505535
10,0.552297165,0.2109375,0.548585486
10.008,0.548387097,0.224609375,0.544895449
10.016,0.541544477,0.416015625,0.5399754
10.024,0.534701857,0.798828125,0.536285363
10.032,0.52688172,1.080078125,0.531365314
10.04,0.519061584,0.794921875,0.526445264
10.048,0.511241447,0.455078125,0.520295203
10.056,0.501466276,0.330078125,0.514145141
10.064,0.492668622,0.294921875,0.509225092
10.072,0.482893451,0.291015625,0.503075031
10.08,0.47311828,0.294921875,0.498154982
10.088,0.464320626,0.28515625,0.493234932
10.096,0.455522972,0.28515625,0.487084871
10.104,0.447702835,0.28515625,0.480934809
10.112,0.440860215,0.28515625,0.474784748
10.12,0.434017595,0.28515625,0.468634686
10.128,0.427174976,0.291015625,0.462484625
10.136,0.42228739,0.30078125,0.456334563
10.144,0.417399804,0.294921875,0.450184502
10.152,0.413489736,0.30078125,0.44403444
10.16,0.408602151,0.30078125,0.437884379
10.168,0.404692082,0.3046875,0.431734317
10.176,0.400782014,0.310546875,0.425584256
10.184,0.396871945,0.314453125,0.419434194
10.192,0.393939394,0.3203125,0.413284133
10.2,0.391006843,0.3203125,0.407134071
10.208,0.389051808,0.330078125,0.40098401
10.216,0.386119257,0.330078125,0.396063961
10.224,0.384164223,0.3359375,0.389913899
10.232,0.382209189,0.33984375,0.38499385
10.24,0.380254154,0.345703125,0.380073801
10.248,0.37829912,0.345703125,0.375153752
10.256,0.376344086,0.359375,0.370233702
10.264,0.374389052,0.359375,0.365313653
10.272,0.372434018,0.365234375,0.360393604
10.28,0.370478983,0.375,0.355473555
10.288,0.369501466,0.375,0.349323493
10.296,0.367546432,0.380859375,0.343173432
10.304,0.365591398,0.390625,0.33702337
10.312,0.362658847,0.400390625,0.330873309
10.32,0.359726295,0.404296875,0.32595326
10.328,0.356793744,0.41015625,0.32103321
10.336,0.35483871,0.42578125,0.314883149
10.344,0.352883675,0.4296875,0.3099631
10.352,0.350928641,0.4453125,0.30504305
10.36,0.348973607,0.44921875,0.298892989
10.368,0.347018573,0.46484375,0.292742927
10.376,0.345063539,0.470703125,0.287822878
10.384,0.344086022,0.474609375,0.281672817
10.392,0.342130987,0.48046875,0.275522755
10.4,0.34115347,0.470703125,0.269372694
10.408,0.340175953,0.44921875,0.264452645
10.416,0.338220919,0.42578125,0.257072571
10.424,0.337243402,0.39453125,0.250922509
10.432,0.336265885,0.359375,0.242312423
10.44,0.335288368,0.3359375,0.234932349
10.448,0.33431085,0.310546875,0.227552276
10.456,0.333333333,0.28515625,0.218942189
10.464,0.331378299,0.275390625,0.210332103
10.472,0.329423265,0.26953125,0.20295203
10.48,0.328445748,0.26953125,0.195571956
10.488,0.326490714,0.265625,0.189421894
10.496,0.324535679,0.265625,0.183271833
10.504,0.321603128,0.26953125,0.177121771
10.512,0.318670577,0.265625,0.17097171
10.52,0.315738025,0.265625,0.166051661
10.528,0.313782991,0.26953125,0.159901599
10.536,0.313782991,0.279296875,0.153751538
10.544,0.315738025,0.28515625,0.148831488
10.552,0.320625611,0.28515625,0.143911439
10.56,0.330400782,0.28515625,0.140221402
10.568,0.347018573,0.28515625,0.136531365
10.576,0.3714565,0.291015625,0.132841328
10.584,0.402737048,0.291015625,0.130381304
10.592,0.442815249,0.291015625,0.126691267
10.6,0.487781036,0.291015625,0.124231242
10.608,0.536656891,0.291015625,0.121771218
10.616,0.586510264,0.28515625,0.119311193
10.624,0.633431085,0.28515625,0.116851169
10.632,0.675464321,0.28515625,0.115621156
10.64,0.707722385,0.291015625,0.113161132
10.648,0.730205279,0.291015625,0.111931119
10.656,0.747800587,0.28515625,0.111931119
10.664,0.759530792,0.28515625,0.110701107
10.672,0.765395894,0.291015625,0.110701107
10.68,0.765395894,0.291015625,0.110701107
10.688,0.761485826,0.291015625,0.110701107
10.696,0.754643206,0.291015625,0.110701107
10.704,0.746823069,0.294921875,0.110701107
10.712,0.739002933,0.294921875,0.110701107
10.72,0.732160313,0.294921875,0.109471095
10.728,0.727272727,0.294921875,0.109471095
10.736,0.724340176,0.30078125,0.109471095
10.744,0.722385142,0.294921875,0.109471095
10.752,0.724340176,0.30078125,0.109471095
10.76,0.728250244,0.294921875,0.109471095
10.768,0.73313783,0.294921875,0.109471095
10.776,0.73998045,0.3046875,0.108241082
10.784,0.744868035,0.3046875,0.10701107
10.792,0.748778104,0.3046875,0.105781058
10.8,0.750733138,0.3046875,0.105781058
10.808,0.748778104,0.30078125,0.104551046
10.816,0.743890518,0.3046875,0.104551046
10.824,0.734115347,0.3046875,0.104551046
10.832,0.722385142,0.3046875,0.103321033
10.84,0.708699902,0.3046875,0.103321033
10.848,0.693059629,0.310546875,0.103321033
10.856,0.675464321,0.310546875,0.102091021
10.864,0.656891496,0.310546875,0.102091021
10.872,0.638318671,0.3203125,0.102091021
10.88,0.620723363,0.3359375,0.102091021
10.888,0.606060606,0.359375,0.103321033
10.896,0.593352884,0.365234375,0.103321033
10.904,0.582600196,0.359375,0.103321033
10.912,0.575757576,0.359375,0.102091021
10.92,0.57086999,0.359375,0.102091021
10.928,0.567937439,0.35546875,0.103321033
10.936,0.565982405,0.3359375,0.103321033
10.944,0.56402737,0.3359375,0.104551046
10.952,0.563049853,0.310546875,0.105781058
10.96,0.562072336,0.291015625,0.10701107
10.968,0.559139785,0.28515625,0.108241082
10.976,0.556207234,0.28515625,0.109471095
10.984,0.548387097,0.28515625,0.111931119
10.992,0.537634409,0.28515625,0.113161132
11,0.527859238,0.255859375,0.114391144
11.008,0.519061584,0.1953125,0.116851169
11.016,0.511241447,0.240234375,0.119311193
11.024,0.502443793,0.484375,0.120541205
11.032,0.492668622,0.91015625,0.12300123
11.04,0.484848485,1.083984375,0.124231242
11.048,0.476050831,0.708984375,0.125461255
11.056,0.467253177,0.419921875,0.126691267
11.064,0.458455523,0.314453125,0.127921279
11.072,0.449657869,0.291015625,0.127921279
11.08,0.441837732,0.294921875,0.127921279
11.088,0.434017595,0.291015625,0.127921279
11.096,0.426197458,0.28515625,0.129151292
11.104,0.418377322,0.279296875,0.129151292
11.112,0.411534702,0.28515625,0.130381304
11.12,0.405669599,0.28515625,0.130381304
11.128,0.399804497,0.28515625,0.130381304
11.136,0.394916911,0.291015625,0.130381304
11.144,0.391006843,0.294921875,0.129151292
11.152,0.386119257,0.294921875,0.129151292
11.16,0.382209189,0.291015625,0.129151292
11.168,0.377321603,0.294921875,0.130381304
11.176,0.373411535,0.310546875,0.130381304
11.184,0.370478983,0.314453125,0.130381304
11.192,0.366568915,0.314453125,0.130381304
11.2,0.363636364,0.314453125,0.131611316
11.208,0.359726295,0.3203125,0.131611316
11.216,0.356793744,0.32421875,0.132841328
11.224,0.353861193,0.3359375,0.132841328
11.232,0.351906158,0.3359375,0.134071341
11.24,0.349951124,0.3359375,0.134071341
11.248,0.347018573,0.3359375,0.135301353
11.256,0.345063539,0.33984375,0.135301353
11.264,0.342130987,0.349609375,0.136531365
11.272,0.340175953,0.35546875,0.136531365
11.28,0.337243402,0.35546875,0.137761378
11.288,0.335288368,0.365234375,0.137761378
11.296,0.332355816,0.375,0.13899139
11.304,0.329423265,0.380859375,0.13899139
11.312,0.326490714,0.390625,0.140221402
11.32,0.323558162,0.400390625,0.140221402
11.328,0.321603128,0.404296875,0.141451415
11.336,0.319648094,0.416015625,0.141451415
11.344,0.31769306,0.42578125,0.141451415
11.352,0.315738025,0.435546875,0.142681427
11.36,0.312805474,0.439453125,0.141451415
11.368,0.309872923,0.44921875,0.141451415
11.376,0.305962854,0.4609375,0.141451415
11.384,0.30400782,0.470703125,0.140221402
11.392,0.301075269,0.474609375,0.13899139
11.4,0.298142717,0.48046875,0.13899139
11.408,0.296187683,0.474609375,0.136531365
11.416,0.295210166,0.44921875,0.135301353
11.424,0.293255132,0.42578125,0.134071341
11.432,0.292277615,0.390625,0.131611316
11.44,0.291300098,0.359375,0.130381304
11.448,0.290322581,0.330078125,0.127921279
11.456,0.288367546,0.310546875,0.126691267
11.464,0.286412512,0.28515625,0.124231242
11.472,0.284457478,0.28515625,0.12300123
11.48,0.282502444,0.275390625,0.121771218
11.488,0.28054741,0.26953125,0.119311193
11.496,0.278592375,0.26953125,0.118081181
11.504,0.276637341,0.275390625,0.116851169
11.512,0.27370479,0.26953125,0.115621156
11.52,0.271749756,0.275390625,0.114391144
11.528,0.269794721,0.275390625,0.113161132
11.536,0.269794721,0.275390625,0.111931119
11.544,0.270772239,0.28515625,0.111931119
11.552,0.274682307,0.28515625,0.110701107
11.56,0.282502444,0.28515625,0.110701107
11.568,0.296187683,0.28515625,0.110701107
11.576,0.316715543,0.28515625,0.111931119
11.584,0.345063539,0.291015625,0.111931119
11.592,0.381231672,0.291015625,0.111931119
11.6,0.423264907,0.291015625,0.111931119
11.608,0.470185728,0.28515625,0.113161132
11.616,0.519061584,0.291015625,0.113161132
11.624,0.567937439,0.291015625,0.114391144
11.632,0.607038123,0.291015625,0.115621156
11.64,0.639296188,0.291015625,0.116851169
11.648,0.668621701,0.291015625,0.119311193
11.656,0.693059629,0.294921875,0.120541205
11.664,0.709677419,0.294921875,0.121771218
11.672,0.718475073,0.291015625,0.124231242
11.68,0.721407625,0.294921875,0.125461255
11.688,0.71945259,0.294921875,0.126691267
11.696,0.713587488,0.294921875,0.127921279
11.704,0.706744868,0.291015625,0.129151292
11.712,0.698924731,0.291015625,0.130381304
11.72,0.692082111,0.294921875,0.131611316
11.728,0.687194526,0.294921875,0.132841328
11.736,0.684261975,0.30078125,0.132841328
11.744,0.68230694,0.30078125,0.134071341
11.752,0.683284457,0.294921875,0.135301353
11.76,0.687194526,0.30078125,0.136531365
11.768,0.692082111,0.3046875,0.136531365
11.776,0.698924731,0.3046875,0.137761378
11.784,0.704789834,0.3046875,0.13899139
11.792,0.710654936,0.3046875,0.140221402
11.8,0.714565005,0.3046875,0.140221402
11.808,0.716520039,0.3046875,0.141451415
11.816,0.714565005,0.3046875,0.142681427
11.824,0.708699902,0.3046875,0.142681427
11.832,0.699902248,0.310546875,0.143911439
11.84,0.68914956,0.3046875,0.143911439
11.848,0.674486804,0.310546875,0.145141451
11.856,0.657869013,0.3046875,0.146371464
11.864,0.639296188,0.3046875,0.147601476
11.872,0.619745846,0.3046875,0.148831488
11.88,0.600195503,0.310546875,0.150061501
11.888,0.583577713,0.310546875,0.151291513
11.896,0.568914956,0.3203125,0.152521525
11.904,0.556207234,0.33984375,0.153751538
11.912,0.546432063,0.359375,0.15498155
11.92,0.539589443,0.37109375,0.156211562
11.928,0.534701857,0.359375,0.157441574
11.936,0.531769306,0.359375,0.157441574
11.944,0.529814272,0.359375,0.158671587
11.952,0.527859238,0.365234375,0.159901599
11.96,0.52688172,0.345703125,0.161131611
11.968,0.524926686,0.3359375,0.162361624
11.976,0.521994135,0.314453125,0.164821648
11.984,0.519061584,0.291015625,0.166051661
11.992,0.514173998,0.291015625,0.167281673
12,0.508308895,0.294921875,0.167281673
12.008,0.501466276,0.30078125,0.168511685
12.016,0.493646139,0.291015625,0.169741697
12.024,0.484848485,0.25,0.17097171
12.032,0.477028348,0.201171875,0.173431734
12.04,0.469208211,0.255859375,0.174661747
12.048,0.460410557,0.544921875,0.175891759
12.056,0.451612903,0.96484375,0.177121771
12.064,0.442815249,1.09375,0.178351784
12.072,0.433040078,0.66015625,0.178351784
12.08,0.424242424,0.400390625,0.179581796
12.088,0.41544477,0.3203125,0.179581796
12.096,0.407624633,0.294921875,0.180811808
12.104,0.399804497,0.30078125,0.180811808
12.112,0.39198436,0.28515625,0.180811808
12.12,0.386119257,0.28515625,0.18204182
12.128,0.380254154,0.28515625,0.18204182
12.136,0.375366569,0.28515625,0.18204182
12.144,0.372434018,0.28515625,0.18204182
12.152,0.367546432,0.291015625,0.183271833
12.16,0.363636364,0.294921875,0.183271833
12.168,0.359726295,0.294921875,0.183271833
12.176,0.355816227,0.294921875,0.183271833
12.184,0.351906158,0.30078125,0.183271833
12.192,0.348973607,0.310546875,0.183271833
12.2,0.346041056,0.310546875,0.183271833
12.208,0.343108504,0.310546875,0.183271833
12.216,0.340175953,0.310546875,0.183271833
12.224,0.338220919,0.314453125,0.183271833
12.232,0.336265885,0.3203125,0.183271833
12.24,0.335288368,0.32421875,0.183271833
12.248,0.333333333,0.32421875,0.184501845
12.256,0.330400782,0.3359375,0.185731857
12.264,0.328445748,0.3359375,0.185731857
12.272,0.326490714,0.3359375,0.18696187
12.28,0.324535679,0.33984375,0.188191882
12.288,0.322580645,0.349609375,0.188191882
12.296,0.320625611,0.359375,0.189421894
12.304,0.318670577,0.359375,0.189421894
12.312,0.316715543,0.365234375,0.189421894
12.32,0.313782991,0.380859375,0.189421894
12.328,0.311827957,0.380859375,0.190651907
12.336,0.309872923,0.390625,0.189421894
12.344,0.307917889,0.400390625,0.189421894
12.352,0.305962854,0.404296875,0.189421894
12.36,0.30400782,0.41015625,0.188191882
12.368,0.302052786,0.42578125,0.18696187
12.376,0.300097752,0.435546875,0.185731857
12.384,0.2971652,0.4453125,0.184501845
12.392,0.295210166,0.4609375,0.183271833
12.4,0.294232649,0.470703125,0.18204182
12.408,0.292277615,0.474609375,0.180811808
12.416,0.291300098,0.48046875,0.180811808
12.424,0.290322581,0.484375,0.179581796
12.432,0.289345064,0.474609375,0.178351784
12.44,0.289345064,0.44921875,0.177121771
12.448,0.289345064,0.4296875,0.175891759
12.456,0.288367546,0.39453125,0.174661747
12.464,0.287390029,0.365234375,0.173431734
12.472,0.286412512,0.3359375,0.172201722
12.48,0.284457478,0.310546875,0.169741697
12.488,0.283479961,0.294921875,0.168511685
12.496,0.282502444,0.28515625,0.167281673
12.504,0.281524927,0.28515625,0.164821648
12.512,0.28054741,0.275390625,0.163591636
12.52,0.278592375,0.26953125,0.161131611
12.528,0.277614858,0.275390625,0.159901599
12.536,0.276637341,0.279296875,0.158671587
12.544,0.276637341,0.279296875,0.156211562
12.552,0.275659824,0.28515625,0.15498155
12.56,0.274682307,0.279296875,0.153751538
12.568,0.275659824,0.28515625,0.152521525
12.576,0.279569892,0.28515625,0.151291513
12.584,0.288367546,0.291015625,0.151291513
12.592,0.303030303,0.291015625,0.150061501
12.6,0.324535679,0.294921875,0.150061501
12.608,0.353861193,0.294921875,0.150061501
12.616,0.391006843,0.291015625,0.150061501
12.624,0.434017595,0.291015625,0.150061501
12.632,0.475073314,0.291015625,0.150061501
12.64,0.515151515,0.294921875,0.150061501
12.648,0.559139785,0.28515625,0.150061501
12.656,0.603128055,0.294921875,0.150061501
12.664,0.642228739,0.291015625,0.151291513
12.672,0.675464321,0.291015625,0.151291513
12.68,0.699902248,0.291015625,0.151291513
12.688,0.715542522,0.294921875,0.152521525
12.696,0.724340176,0.294921875,0.152521525
12.704,0.72629521,0.294921875,0.153751538
12.712,0.723362659,0.30078125,0.15498155
12.72,0.716520039,0.294921875,0.156211562
12.728,0.707722385,0.30078125,0.157441574
12.736,0.699902248,0.294921875,0.158671587
12.744,0.691104594,0.294921875,0.159901599
12.752,0.685239492,0.294921875,0.159901599
12.76,0.680351906,0.30078125,0.161131611
12.768,0.678396872,0.3046875,0.162361624
12.776,0.679374389,0.30078125,0.162361624
12.784,0.68230694,0.3046875,0.163591636
12.792,0.687194526,0.3046875,0.163591636
12.8,0.693059629,0.3046875,0.164821648
12.808,0.698924731,0.30078125,0.164821648
12.816,0.704789834,0.3046875,0.164821648
12.824,0.707722385,0.310546875,0.166051661
12.832,0.707722385,0.310546875,0.166051661
12.84,0.704789834,0.310546875,0.166051661
12.848,0.698924731,0.310546875,0.167281673
12.856,0.690127077,0.310546875,0.167281673
12.864,0.678396872,0.310546875,0.167281673
12.872,0.664711632,0.310546875,0.167281673
12.88,0.648093842,0.310546875,0.168511685
12.888,0.630498534,0.310546875,0.168511685
12.896,0.612903226,0.314453125,0.168511685
12.904,0.595307918,0.3203125,0.169741697
12.912,0.579667644,0.314453125,0.169741697
12.92,0.566959922,0.314453125,0.17097171
12.928,0.555229717,0.3203125,0.172201722
12.936,0.54740958,0.330078125,0.173431734
12.944,0.541544477,0.35546875,0.174661747
12.952,0.536656891,0.375,0.174661747
12.96,0.53372434,0.380859375,0.175891759
12.968,0.531769306,0.365234375,0.177121771
12.976,0.530791789,0.37109375,0.178351784
12.984,0.527859238,0.380859375,0.179581796
12.992,0.524926686,0.37109375,0.180811808
13,0.521016618,0.35546875,0.18204182
13.008,0.516129032,0.33984375,0.18204182
13.016,0.511241447,0.314453125,0.183271833
13.024,0.504398827,0.30078125,0.184501845
13.032,0.497556207,0.3046875,0.185731857
13.04,0.490713587,0.30078125,0.185731857
13.048,0.481915934,0.3046875,0.18696187
13.056,0.47311828,0.294921875,0.18696187
13.064,0.464320626,0.234375,0.188191882
13.072,0.454545455,0.205078125,0.188191882
13.08,0.443792766,0.294921875,0.188191882
13.088,0.434017595,0.619140625,0.188191882
13.096,0.424242424,1.025390625,0.189421894
13.104,0.414467253,1.09375,0.189421894
13.112,0.404692082,0.599609375,0.189421894
13.12,0.395894428,0.380859375,0.189421894
13.128,0.389051808,0.314453125,0.189421894
13.136,0.383186706,0.30078125,0.189421894
13.144,0.377321603,0.3046875,0.189421894
13.152,0.372434018,0.291015625,0.189421894
13.16,0.366568915,0.28515625,0.189421894
13.168,0.362658847,0.28515625,0.189421894
13.176,0.357771261,0.291015625,0.189421894
13.184,0.353861193,0.294921875,0.189421894
13.192,0.348973607,0.294921875,0.189421894
13.2,0.345063539,0.30078125,0.189421894
13.208,0.34115347,0.294921875,0.189421894
13.216,0.337243402,0.3046875,0.189421894
13.224,0.33431085,0.3046875,0.189421894
13.232,0.331378299,0.310546875,0.189421894
13.24,0.330400782,0.310546875,0.190651907
13.248,0.328445748,0.310546875,0.190651907
13.256,0.325513196,0.310546875,0.191881919
13.264,0.323558162,0.3203125,0.193111931
13.272,0.320625611,0.330078125,0.193111931
13.28,0.318670577,0.3359375,0.194341943
13.288,0.316715543,0.3359375,0.194341943
13.296,0.314760508,0.3359375,0.195571956
13.304,0.311827957,0.33984375,0.196801968
13.312,0.309872923,0.33984375,0.19803198
13.32,0.307917889,0.345703125,0.199261993
13.328,0.305962854,0.349609375,0.200492005
13.336,0.304985337,0.359375,0.201722017
13.344,0.303030303,0.365234375,0.204182042
13.352,0.300097752,0.37109375,0.205412054
13.36,0.2971652,0.380859375,0.207872079
13.368,0.295210166,0.384765625,0.209102091
13.376,0.292277615,0.390625,0.211562116
13.384,0.290322581,0.404296875,0.21402214
13.392,0.287390029,0.416015625,0.216482165
13.4,0.285434995,0.42578125,0.218942189
13.408,0.282502444,0.4296875,0.221402214
13.416,0.279569892,0.439453125,0.225092251
13.424,0.277614858,0.455078125,0.227552276
13.432,0.275659824,0.46484375,0.2300123
13.44,0.274682307,0.474609375,0.231242312
13.448,0.27370479,0.48046875,0.233702337
13.456,0.271749756,0.484375,0.234932349
13.464,0.270772239,0.490234375,0.237392374
13.472,0.268817204,0.48046875,0.239852399
13.48,0.26686217,0.4609375,0.241082411
13.488,0.264907136,0.435546875,0.243542435
13.496,0.261974585,0.39453125,0.24600246
13.504,0.26001955,0.365234375,0.247232472
13.512,0.258064516,0.3359375,0.249692497
13.52,0.256109482,0.310546875,0.250922509
13.528,0.255131965,0.294921875,0.253382534
13.536,0.254154448,0.28515625,0.254612546
13.544,0.252199413,0.28515625,0.255842558
13.552,0.250244379,0.275390625,0.257072571
13.56,0.248289345,0.26953125,0.259532595
13.568,0.245356794,0.275390625,0.26199262
13.576,0.24340176,0.275390625,0.264452645
13.584,0.239491691,0.275390625,0.268142681
13.592,0.23655914,0.275390625,0.270602706
13.6,0.234604106,0.279296875,0.274292743
13.608,0.233626588,0.28515625,0.27798278
13.616,0.237536657,0.291015625,0.282902829
13.624,0.246334311,0.28515625,0.287822878
13.632,0.259042033,0.28515625,0.29397294
13.64,0.277614858,0.28515625,0.300123001
13.648,0.304985337,0.291015625,0.307503075
13.656,0.34115347,0.291015625,0.313653137
13.664,0.38514174,0.291015625,0.32103321
13.672,0.434017595,0.291015625,0.328413284
13.68,0.486803519,0.28515625,0.335793358
13.688,0.538611926,0.28515625,0.343173432
13.696,0.587487781,0.291015625,0.349323493
13.704,0.629521017,0.291015625,0.355473555
13.712,0.664711632,0.291015625,0.361623616
13.72,0.690127077,0.294921875,0.367773678
13.728,0.704789834,0.30078125,0.375153752
13.736,0.711632454,0.30078125,0.381303813
13.744,0.713587488,0.294921875,0.387453875
13.752,0.709677419,0.291015625,0.393603936
13.76,0.700879765,0.30078125,0.398523985
13.768,0.691104594,0.30078125,0.404674047
13.776,0.679374389,0.30078125,0.409594096
13.784,0.668621701,0.294921875,0.415744157
13.792,0.65884653,0.294921875,0.420664207
13.8,0.65200391,0.30078125,0.425584256
13.808,0.649071359,0.3046875,0.431734317
13.816,0.649071359,0.30078125,0.436654367
13.824,0.651026393,0.30078125,0.442804428
13.832,0.654936461,0.310546875,0.447724477
13.84,0.657869013,0.310546875,0.452644526
13.848,0.663734115,0.30078125,0.457564576
13.856,0.669599218,0.30078125,0.462484625
13.864,0.673509286,0.3046875,0.466174662
13.872,0.675464321,0.3046875,0.471094711
13.88,0.673509286,0.310546875,0.47601476
13.888,0.668621701,0.314453125,0.480934809
13.896,0.65884653,0.3046875,0.487084871
13.904,0.64516129,0.3046875,0.49200492
13.912,0.629521017,0.310546875,0.496924969
13.92,0.610948192,0.314453125,0.501845018
13.928,0.593352884,0.3203125,0.506765068
13.936,0.57771261,0.3203125,0.512915129
13.944,0.560117302,0.330078125,0.517835178
13.952,0.544477028,0.359375,0.525215252
13.96,0.530791789,0.365234375,0.531365314
13.968,0.520039101,0.37109375,0.537515375
13.976,0.511241447,0.359375,0.544895449
13.984,0.505376344,0.365234375,0.55104551
13.992,0.501466276,0.37109375,0.557195572
14,0.499511241,0.359375,0.563345633
14.008,0.497556207,0.345703125,0.569495695
14.016,0.495601173,0.330078125,0.575645756
14.024,0.493646139,0.30078125,0.580565806
14.032,0.491691105,0.291015625,0.586715867
14.04,0.488758553,0.30078125,0.592865929
14.048,0.483870968,0.294921875,0.597785978
14.056,0.478005865,0.3046875,0.603936039
14.064,0.471163245,0.28515625,0.608856089
14.072,0.463343109,0.21484375,0.613776138
14.08,0.454545455,0.234375,0.618696187
14.088,0.445747801,0.419921875,0.622386224
14.096,0.434995112,0.810546875,0.627306273
14.104,0.425219941,1.0390625,0.632226322
14.112,0.414467253,0.76953125,0.637146371
14.12,0.404692082,0.435546875,0.642066421
14.128,0.395894428,0.330078125,0.64698647
14.136,0.388074291,0.28515625,0.651906519
14.144,0.379276637,0.291015625,0.655596556
14.152,0.370478983,0.30078125,0.660516605
14.16,0.362658847,0.291015625,0.664206642
14.168,0.35483871,0.291015625,0.667896679
14.176,0.347018573,0.28515625,0.671586716
14.184,0.340175953,0.28515625,0.675276753
14.192,0.33431085,0.291015625,0.67896679
14.2,0.328445748,0.30078125,0.683886839
14.208,0.322580645,0.294921875,0.687576876
14.216,0.31769306,0.30078125,0.692496925
14.224,0.312805474,0.3046875,0.696186962
14.232,0.309872923,0.310546875,0.699876999
14.24,0.306940371,0.310546875,0.703567036
14.248,0.30400782,0.314453125,0.707257073
14.256,0.300097752,0.3203125,0.709717097
14.264,0.2971652,0.3203125,0.713407134
14.272,0.294232649,0.330078125,0.717097171
14.28,0.290322581,0.3359375,0.720787208
14.288,0.287390029,0.3359375,0.724477245
14.296,0.285434995,0.3359375,0.729397294
14.304,0.282502444,0.345703125,0.733087331
14.312,0.279569892,0.345703125,0.73800738
14.32,0.277614858,0.349609375,0.741697417
14.328,0.275659824,0.359375,0.745387454
14.336,0.274682307,0.365234375,0.749077491
14.344,0.272727273,0.37109375,0.752767528
14.352,0.270772239,0.375,0.755227552
14.36,0.268817204,0.380859375,0.758917589
14.368,0.265884653,0.380859375,0.762607626
14.376,0.262952102,0.390625,0.766297663
14.384,0.260997067,0.400390625,0.768757688
14.392,0.258064516,0.404296875,0.771217712
14.4,0.255131965,0.416015625,0.773677737
14.408,0.253176931,0.42578125,0.777367774
14.416,0.251221896,0.435546875,0.778597786
14.424,0.249266862,0.44921875,0.781057811
14.432,0.248289345,0.4609375,0.783517835
14.44,0.247311828,0.470703125,0.784747847
14.448,0.246334311,0.474609375,0.78597786
14.456,0.245356794,0.48046875,0.787207872
14.464,0.24340176,0.490234375,0.788437884
14.472,0.241446725,0.48046875,0.789667897
14.48,0.239491691,0.46484375,0.789667897
14.488,0.237536657,0.439453125,0.789667897
14.496,0.234604106,0.41015625,0.789667897
14.504,0.232649071,0.380859375,0.788437884
14.512,0.230694037,0.35546875,0.787207872
14.52,0.228739003,0.330078125,0.784747847
14.528,0.228739003,0.310546875,0.781057811
14.536,0.228739003,0.291015625,0.778597786
14.544,0.227761486,0.28515625,0.774907749
14.552,0.226783969,0.28515625,0.772447724
14.56,0.225806452,0.279296875,0.768757688
14.568,0.224828935,0.275390625,0.766297663
14.576,0.223851417,0.275390625,0.762607626
14.584,0.221896383,0.279296875,0.757687577
14.592,0.219941349,0.28515625,0.752767528
14.6,0.218963832,0.28515625,0.747847478
14.608,0.218963832,0.28515625,0.741697417
14.616,0.220918866,0.28515625,0.736777368
14.624,0.227761486,0.28515625,0.729397294
14.632,0.23655914,0.28515625,0.723247232
14.64,0.251221896,0.28515625,0.718327183
14.648,0.27370479,0.291015625,0.712177122
14.656,0.30400782,0.291015625,0.707257073
14.664,0.344086022,0.291015625,0.701107011
14.672,0.391006843,0.291015625,0.696186962
14.68,0.443792766,0.28515625,0.691266913
14.688,0.499511241,0.28515625,0.685116851
14.696,0.554252199,0.28515625,0.680196802
14.704,0.606060606,0.28515625,0.67404674
14.712,0.651026393,0.28515625,0.669126691
14.72,0.687194526,0.28515625,0.664206642
14.728,0.711632454,0.28515625,0.660516605
14.736,0.72629521,0.28515625,0.654366544
14.744,0.736070381,0.291015625,0.649446494
14.752,0.739002933,0.291015625,0.643296433
14.76,0.737047898,0.291015625,0.637146371
14.768,0.730205279,0.291015625,0.63099631
14.776,0.720430108,0.291015625,0.624846248
14.784,0.709677419,0.294921875,0.618696187
14.792,0.698924731,0.294921875,0.612546125
14.8,0.691104594,0.291015625,0.607626076
14.808,0.684261975,0.294921875,0.601476015
14.816,0.681329423,0.294921875,0.595325953
14.824,0.681329423,0.294921875,0.589175892
14.832,0.68230694,0.30078125,0.58302583
14.84,0.685239492,0.30078125,0.576875769
14.848,0.690127077,0.30078125,0.569495695
14.856,0.69599218,0.3046875,0.563345633
14.864,0.701857283,0.310546875,0.557195572
14.872,0.706744868,0.3046875,0.55104551
14.88,0.707722385,0.3046875,0.546125461
14.888,0.705767351,0.3046875,0.5399754
14.896,0.699902248,0.3046875,0.533825338
14.904,0.690127077,0.3046875,0.527675277
14.912,0.677419355,0.310546875,0.521525215
14.92,0.662756598,0.310546875,0.515375154
14.928,0.649071359,0.3203125,0.509225092
14.936,0.635386119,0.33984375,0.504305043
14.944,0.620723363,0.359375,0.499384994
14.952,0.60801564,0.365234375,0.494464945
14.96,0.597262952,0.359375,0.488314883
14.968,0.588465298,0.359375,0.483394834
14.976,0.581622678,0.359375,0.478474785
14.984,0.57771261,0.35546875,0.473554736
14.992,0.574780059,0.3359375,0.467404674
15,0.573802542,0.330078125,0.462484625
15.008,0.572825024,0.3046875,0.457564576
15.016,0.571847507,0.28515625,0.452644526
15.024,0.569892473,0.28515625,0.447724477
15.032,0.566959922,0.28515625,0.442804428
15.04,0.561094819,0.28515625,0.437884379
15.048,0.556207234,0.28515625,0.43296433
15.056,0.551319648,0.224609375,0.42804428
15.064,0.545454545,0.1953125,0.423124231
15.072,0.538611926,0.26953125,0.41697417
15.08,0.534701857,0.615234375,0.412054121
15.088,0.531769306,1,0.405904059
15.096,0.525904203,1.083984375,0.399753998
15.104,0.518084066,0.58984375,0.394833948
15.112,0.509286413,0.365234375,0.388683887
15.12,0.500488759,0.3046875,0.383763838
15.128,0.491691105,0.291015625,0.378843788
15.136,0.483870968,0.294921875,0.373923739
15.144,0.476050831,0.28515625,0.36900369
15.152,0.467253177,0.279296875,0.362853629
15.16,0.45943304,0.28515625,0.357933579
15.168,0.450635386,0.28515625,0.351783518
15.176,0.443792766,0.28515625,0.345633456
15.184,0.436950147,0.28515625,0.340713407
15.192,0.431085044,0.28515625,0.334563346
15.2,0.425219941,0.291015625,0.328413284
15.208,0.420332356,0.291015625,0.322263223
15.216,0.41544477,0.294921875,0.317343173
15.224,0.411534702,0.30078125,0.311193112
15.232,0.409579668,0.310546875,0.306273063
15.24,0.406647116,0.310546875,0.300123001
15.248,0.403714565,0.310546875,0.295202952
15.256,0.400782014,0.314453125,0.289052891
15.264,0.397849462,0.314453125,0.284132841
15.272,0.395894428,0.32421875,0.27798278
15.28,0.392961877,0.330078125,0.273062731
15.288,0.391006843,0.330078125,0.266912669
15.296,0.388074291,0.3359375,0.26199262
15.304,0.386119257,0.3359375,0.257072571
15.312,0.383186706,0.345703125,0.250922509
15.32,0.380254154,0.349609375,0.24600246
15.328,0.37829912,0.35546875,0.241082411
15.336,0.377321603,0.359375,0.236162362
15.344,0.375366569,0.365234375,0.231242312
15.352,0.373411535,0.375,0.226322263
15.36,0.3714565,0.380859375,0.222632226
15.368,0.368523949,0.384765625,0.217712177
15.376,0.365591398,0.390625,0.21402214
15.384,0.362658847,0.404296875,0.209102091
15.392,0.359726295,0.416015625,0.205412054
15.4,0.356793744,0.4296875,0.200492005
15.408,0.35483871,0.439453125,0.195571956
15.416,0.351906158,0.44921875,0.191881919
15.424,0.350928641,0.455078125,0.18696187
15.432,0.348973607,0.470703125,0.183271833
15.44,0.34799609,0.474609375,0.178351784
15.448,0.346041056,0.474609375,0.174661747
15.456,0.344086022,0.48046875,0.169741697
15.464,0.342130987,0.46484375,0.166051661
15.472,0.340175953,0.4453125,0.161131611
15.48,0.339198436,0.416015625,0.157441574
15.488,0.338220919,0.380859375,0.152521525
15.496,0.336265885,0.35546875,0.148831488
15.504,0.335288368,0.32421875,0.145141451
15.512,0.333333333,0.30078125,0.141451415
15.52,0.331378299,0.28515625,0.13899139
15.528,0.330400782,0.279296875,0.135301353
15.536,0.329423265,0.275390625,0.131611316
15.544,0.328445748,0.26953125,0.127921279
15.552,0.326490714,0.26953125,0.124231242
15.56,0.324535679,0.275390625,0.120541205
15.568,0.322580645,0.275390625,0.116851169
15.576,0.319648094,0.275390625,0.113161132
15.584,0.31769306,0.28515625,0.110701107
15.592,0.315738025,0.279296875,0.10701107
15.6,0.315738025,0.28515625,0.104551046
15.608,0.319648094,0.28515625,0.103321033
15.616,0.328445748,0.28515625,0.100861009
15.624,0.340175953,0.28515625,0.098400984
15.632,0.356793744,0.28515625,0.097170972
15.64,0.381231672,0.28515625,0.095940959
15.648,0.414467253,0.28515625,0.093480935
15.656,0.455522972,0.291015625,0.092250923
15.664,0.501466276,0.28515625,0.092250923
15.672,0.550342131,0.28515625,0.09102091
15.68,0.599217986,0.28515625,0.09102091
15.688,0.646138807,0.28515625,0.09102091
15.696,0.687194526,0.28515625,0.09102091
15.704,0.721407625,0.28515625,0.09102091
15.712,0.747800587,0.291015625,0.09102091
15.72,0.764418377,0.28515625,0.092250923
15.728,0.772238514,0.28515625,0.092250923
15.736,0.774193548,0.28515625,0.093480935
15.744,0.771260997,0.28515625,0.094710947
15.752,0.765395894,0.291015625,0.095940959
15.76,0.75659824,0.291015625,0.095940959
15.768,0.746823069,0.291015625,0.097170972
15.776,0.738025415,0.291015625,0.098400984
15.784,0.731182796,0.291015625,0.099630996
15.792,0.72629521,0.294921875,0.099630996
15.8,0.724340176,0.294921875,0.100861009
15.808,0.724340176,0.30078125,0.100861009
15.816,0.72629521,0.294921875,0.100861009
15.824,0.729227761,0.30078125,0.100861009
15.832,0.732160313,0.3046875,0.102091021
15.84,0.737047898,0.294921875,0.102091021
15.848,0.742913001,0.30078125,0.103321033
15.856,0.746823069,0.3046875,0.103321033
15.864,0.748778104,0.30078125,0.103321033
15.872,0.747800587,0.30078125,0.103321033
15.88,0.742913001,0.30078125,0.103321033
15.888,0.73313783,0.3046875,0.103321033
15.896,0.720430108,0.30078125,0.104551046
15.904,0.704789834,0.3046875,0.104551046
15.912,0.687194526,0.310546875,0.104551046
15.92,0.667644184,0.310546875,0.105781058
15.928,0.650048876,0.310546875,0.105781058
15.936,0.633431085,0.314453125,0.10701107
15.944,0.616813294,0.3359375,0.108241082
15.952,0.602150538,0.35546875,0.109471095
15.96,0.589442815,0.365234375,0.109471095
15.968,0.578690127,0.35546875,0.110701107
15.976,0.571847507,0.359375,0.111931119
15.984,0.565982405,0.359375,0.113161132
15.992,0.563049853,0.359375,0.113161132
16,0.561094819,0.33984375,0.114391144
16.008,0.559139785,0.330078125,0.115621156
16.016,0.558162268,0.314453125,0.116851169
16.024,0.556207234,0.294921875,0.118081181
16.032,0.553274682,0.28515625,0.120541205
16.04,0.550342131,0.291015625,0.12300123
16.048,0.545454545,0.291015625,0.124231242
16.056,0.539589443,0.294921875,0.126691267
16.064,0.529814272,0.275390625,0.129151292
16.072,0.520039101,0.201171875,0.131611316
16.08,0.513196481,0.234375,0.134071341
16.088,0.50342131,0.4453125,0.135301353
16.096,0.493646139,0.869140625,0.137761378
16.104,0.483870968,1.083984375,0.13899139
16.112,0.474095797,0.759765625,0.140221402
16.12,0.464320626,0.439453125,0.141451415
16.128,0.456500489,0.32421875,0.142681427
16.136,0.449657869,0.294921875,0.143911439
16.144,0.441837732,0.30078125,0.143911439
16.152,0.434017595,0.28515625,0.145141451
16.16,0.426197458,0.28515625,0.145141451
16.168,0.419354839,0.279296875,0.145141451
16.176,0.411534702,0.279296875,0.145141451
16.184,0.405669599,0.28515625,0.145141451
16.192,0.399804497,0.28515625,0.145141451
16.2,0.394916911,0.28515625,0.146371464
16.208,0.389051808,0.294921875,0.146371464
16.216,0.384164223,0.294921875,0.146371464
16.224,0.381231672,0.294921875,0.146371464
16.232,0.37829912,0.3046875,0.147601476
16.24,0.375366569,0.310546875,0.147601476
16.248,0.372434018,0.314453125,0.147601476
16.256,0.369501466,0.3203125,0.148831488
16.264,0.366568915,0.3203125,0.148831488
16.272,0.363636364,0.3203125,0.148831488
16.28,0.360703812,0.330078125,0.150061501
16.288,0.357771261,0.330078125,0.150061501
16.296,0.355816227,0.3359375,0.151291513
16.304,0.352883675,0.3359375,0.152521525
16.312,0.350928641,0.33984375,0.153751538
16.32,0.34799609,0.345703125,0.15498155
16.328,0.346041056,0.345703125,0.156211562
16.336,0.345063539,0.349609375,0.157441574
16.344,0.343108504,0.359375,0.158671587
16.352,0.34115347,0.359375,0.158671587
16.36,0.338220919,0.365234375,0.159901599
16.368,0.336265885,0.37109375,0.161131611
16.376,0.333333333,0.380859375,0.162361624
16.384,0.330400782,0.390625,0.162361624
16.392,0.328445748,0.400390625,0.163591636
16.4,0.325513196,0.404296875,0.163591636
16.408,0.322580645,0.419921875,0.163591636
16.416,0.320625611,0.435546875,0.162361624
16.424,0.318670577,0.4453125,0.162361624
16.432,0.31769306,0.455078125,0.161131611
16.44,0.316715543,0.4609375,0.161131611
16.448,0.315738025,0.470703125,0.159901599
16.456,0.313782991,0.474609375,0.158671587
16.464,0.312805474,0.474609375,0.157441574
16.472,0.311827957,0.470703125,0.156211562
16.48,0.309872923,0.455078125,0.15498155
16.488,0.308895406,0.42578125,0.153751538
16.496,0.306940371,0.400390625,0.151291513
16.504,0.305962854,0.37109375,0.150061501
16.512,0.304985337,0.3359375,0.147601476
16.52,0.303030303,0.314453125,0.145141451
16.528,0.302052786,0.291015625,0.141451415
16.536,0.302052786,0.275390625,0.13899139
16.544,0.301075269,0.26953125,0.136531365
16.552,0.300097752,0.26953125,0.132841328
16.56,0.298142717,0.26953125,0.131611316
16.568,0.2971652,0.26953125,0.129151292
16.576,0.295210166,0.275390625,0.127921279
16.584,0.292277615,0.26953125,0.126691267
16.592,0.290322581,0.275390625,0.125461255
16.6,0.288367546,0.279296875,0.125461255
16.608,0.288367546,0.279296875,0.124231242
16.616,0.291300098,0.279296875,0.124231242
16.624,0.2971652,0.279296875,0.124231242
16.632,0.306940371,0.279296875,0.124231242
16.64,0.324535679,0.279296875,0.124231242
16.648,0.349951124,0.28515625,0.125461255
16.656,0.383186706,0.28515625,0.125461255
16.664,0.424242424,0.28515625,0.125461255
16.672,0.470185728,0.28515625,0.126691267
16.68,0.521016618,0.28515625,0.126691267
16.688,0.571847507,0.28515625,0.127921279
16.696,0.620723363,0.28515625,0.129151292
16.704,0.663734115,0.28515625,0.130381304
16.712,0.699902248,0.28515625,0.131611316
16.72,0.725317693,0.291015625,0.132841328
16.728,0.740957967,0.28515625,0.135301353
16.736,0.752688172,0.28515625,0.136531365
16.744,0.757575758,0.28515625,0.137761378
16.752,0.75659824,0.28515625,0.13899139
16.76,0.750733138,0.291015625,0.140221402
16.768,0.742913001,0.291015625,0.142681427
16.776,0.734115347,0.291015625,0.143911439
16.784,0.725317693,0.294921875,0.146371464
16.792,0.718475073,0.291015625,0.147601476
16.8,0.712609971,0.291015625,0.148831488
16.808,0.709677419,0.294921875,0.150061501
16.816,0.708699902,0.30078125,0.151291513
16.824,0.709677419,0.294921875,0.152521525
16.832,0.710654936,0.30078125,0.153751538
16.84,0.715542522,0.30078125,0.15498155
16.848,0.721407625,0.30078125,0.15498155
16.856,0.727272727,0.294921875,0.156211562
16.864,0.732160313,0.30078125,0.157441574
16.872,0.735092864,0.3046875,0.157441574
16.88,0.734115347,0.294921875,0.158671587
16.888,0.731182796,0.30078125,0.158671587
16.896,0.723362659,0.30078125,0.159901599
16.904,0.711632454,0.3046875,0.159901599
16.912,0.696969697,0.310546875,0.161131611
16.92,0.681329423,0.3046875,0.161131611
16.928,0.66568915,0.310546875,0.161131611
16.936,0.647116325,0.3046875,0.162361624
16.944,0.6285435,0.3046875,0.162361624
16.952,0.610948192,0.310546875,0.162361624
16.96,0.594330401,0.310546875,0.163591636
16.968,0.580645161,0.330078125,0.163591636
16.976,0.568914956,0.345703125,0.164821648
16.984,0.560117302,0.359375,0.166051661
16.992,0.554252199,0.35546875,0.167281673
17,0.551319648,0.349609375,0.168511685
17.008,0.549364614,0.349609375,0.169741697
17.016,0.54740958,0.35546875,0.17097171
17.024,0.546432063,0.345703125,0.173431734
17.032,0.544477028,0.3359375,0.174661747
17.04,0.541544477,0.32421875,0.175891759
17.048,0.537634409,0.30078125,0.177121771
17.056,0.53372434,0.28515625,0.178351784
17.064,0.527859238,0.28515625,0.179581796
17.072,0.521016618,0.28515625,0.180811808
17.08,0.513196481,0.28515625,0.18204182
17.088,0.502443793,0.275390625,0.184501845
17.096,0.491691105,0.201171875,0.185731857
17.104,0.483870968,0.1953125,0.18696187
17.112,0.475073314,0.37109375,0.188191882
17.12,0.46627566,0.775390625,0.189421894
17.128,0.449657869,1.09375,0.189421894
17.136,0.428152493,0.830078125,0.190651907
17.144,0.412512219,0.48046875,0.190651907
17.152,0.399804497,0.3359375,0.191881919
17.16,0.390029326,0.294921875,0.191881919
17.168,0.381231672,0.291015625,0.191881919
17.176,0.373411535,0.294921875,0.193111931
17.184,0.366568915,0.28515625,0.193111931
17.192,0.359726295,0.28515625,0.193111931
17.2,0.353861193,0.279296875,0.193111931
17.208,0.34799609,0.279296875,0.193111931
17.216,0.343108504,0.279296875,0.193111931
17.224,0.340175953,0.28515625,0.193111931
17.232,0.336265885,0.28515625,0.193111931
17.24,0.333333333,0.28515625,0.193111931
17.248,0.329423265,0.291015625,0.191881919
17.256,0.326490714,0.294921875,0.190651907
17.264,0.323558162,0.294921875,0.189421894
17.272,0.321603128,0.30078125,0.189421894
17.28,0.318670577,0.310546875,0.188191882
17.288,0.316715543,0.310546875,0.188191882
17.296,0.313782991,0.314453125,0.18696187
17.304,0.311827957,0.314453125,0.18696187
17.312,0.308895406,0.3203125,0.18696187
17.32,0.306940371,0.32421875,0.18696187
17.328,0.305962854,0.32421875,0.18696187
17.336,0.30400782,0.3359375,0.18696187
17.344,0.302052786,0.330078125,0.18696187
17.352,0.300097752,0.33984375,0.188191882
17.36,0.298142717,0.345703125,0.188191882
17.368,0.296187683,0.349609375,0.189421894
17.376,0.294232649,0.359375,0.189421894
17.384,0.291300098,0.365234375,0.189421894
17.392,0.288367546,0.37109375,0.190651907
17.4,0.285434995,0.380859375,0.190651907
17.408,0.283479961,0.384765625,0.190651907
17.416,0.281524927,0.390625,0.190651907
17.424,0.28054741,0.404296875,0.190651907
17.432,0.279569892,0.416015625,0.191881919
17.44,0.278592375,0.42578125,0.191881919
17.448,0.275659824,0.435546875,0.191881919
17.456,0.27370479,0.44921875,0.191881919
17.464,0.271749756,0.4609375,0.191881919
17.472,0.268817204,0.470703125,0.190651907
17.48,0.26686217,0.474609375,0.190651907
17.488,0.264907136,0.484375,0.189421894
17.496,0.263929619,0.474609375,0.189421894
17.504,0.262952102,0.46484375,0.18696187
17.512,0.262952102,0.439453125,0.185731857
17.52,0.262952102,0.41015625,0.183271833
17.528,0.262952102,0.375,0.180811808
17.536,0.262952102,0.345703125,0.179581796
17.544,0.262952102,0.314453125,0.177121771
17.552,0.261974585,0.30078125,0.174661747
17.56,0.261974585,0.28515625,0.173431734
17.568,0.260997067,0.275390625,0.17097171
17.576,0.259042033,0.265625,0.169741697
17.584,0.258064516,0.265625,0.167281673
17.592,0.257086999,0.26953125,0.166051661
17.6,0.255131965,0.26953125,0.163591636
17.608,0.253176931,0.275390625,0.162361624
17.616,0.251221896,0.275390625,0.159901599
17.624,0.250244379,0.279296875,0.158671587
17.632,0.251221896,0.275390625,0.158671587
17.64,0.252199413,0.279296875,0.157441574
17.648,0.257086999,0.279296875,0.156211562
17.656,0.265884653,0.279296875,0.156211562
17.664,0.281524927,0.279296875,0.156211562
17.672,0.304985337,0.275390625,0.15498155
17.68,0.336265885,0.275390625,0.15498155
17.688,0.375366569,0.275390625,0.15498155
17.696,0.420332356,0.28515625,0.15498155
17.704,0.470185728,0.28515625,0.15498155
17.712,0.521994135,0.28515625,0.15498155
17.72,0.565004888,0.279296875,0.15498155
17.728,0.603128055,0.275390625,0.156211562
17.736,0.639296188,0.279296875,0.156211562
17.744,0.671554252,0.279296875,0.156211562
17.752,0.695014663,0.279296875,0.157441574
17.76,0.711632454,0.28515625,0.158671587
17.768,0.71945259,0.28515625,0.159901599
17.776,0.720430108,0.28515625,0.161131611
17.784,0.716520039,0.28515625,0.162361624
17.792,0.708699902,0.28515625,0.163591636
17.8,0.699902248,0.291015625,0.163591636
17.808,0.690127077,0.291015625,0.164821648
17.816,0.681329423,0.291015625,0.164821648
17.824,0.673509286,0.294921875,0.166051661
17.832,0.668621701,0.294921875,0.166051661
17.84,0.664711632,0.291015625,0.167281673
17.848,0.664711632,0.294921875,0.167281673
17.856,0.666666667,0.294921875,0.168511685
17.864,0.671554252,0.30078125,0.168511685
17.872,0.677419355,0.294921875,0.168511685
17.88,0.683284457,0.30078125,0.169741697
17.888,0.688172043,0.30078125,0.169741697
17.896,0.691104594,0.30078125,0.169741697
17.904,0.692082111,0.3046875,0.169741697
17.912,0.688172043,0.310546875,0.17097171
17.92,0.681329423,0.310546875,0.17097171
17.928,0.672531769,0.310546875,0.17097171
17.936,0.659824047,0.3046875,0.172201722
17.944,0.644183773,0.3046875,0.173431734
17.952,0.626588465,0.3046875,0.174661747
17.96,0.607038123,0.3046875,0.175891759
17.968,0.588465298,0.310546875,0.178351784
17.976,0.57086999,0.3046875,0.180811808
17.984,0.555229717,0.310546875,0.184501845
17.992,0.542521994,0.3203125,0.188191882
18,0.531769306,0.3359375,0.190651907
18.008,0.523949169,0.359375,0.194341943
18.016,0.518084066,0.365234375,0.19803198
18.024,0.515151515,0.359375,0.200492005
18.032,0.512218964,0.359375,0.205412054
18.04,0.51026393,0.359375,0.209102091
18.048,0.509286413,0.359375,0.21402214
18.056,0.507331378,0.345703125,0.218942189
18.064,0.504398827,0.33984375,0.223862239
18.072,0.499511241,0.32421875,0.228782288
18.08,0.493646139,0.294921875,0.233702337
18.088,0.486803519,0.294921875,0.238622386
18.096,0.478983382,0.30078125,0.244772448
18.104,0.470185728,0.294921875,0.249692497
18.112,0.45943304,0.28515625,0.257072571
18.12,0.449657869,0.255859375,0.263222632
18.128,0.441837732,0.1953125,0.270602706
18.136,0.433040078,0.24609375,0.27798278
18.144,0.42228739,0.51953125,0.284132841
18.152,0.411534702,0.9140625,0.291512915
18.16,0.400782014,1.0546875,0.297662977
18.168,0.389051808,0.67578125,0.303813038
18.176,0.379276637,0.41015625,0.3099631
18.184,0.369501466,0.32421875,0.316113161
18.192,0.359726295,0.28515625,0.322263223
18.2,0.350928641,0.30078125,0.328413284
18.208,0.344086022,0.294921875,0.334563346
18.216,0.336265885,0.28515625,0.340713407
18.224,0.330400782,0.28515625,0.346863469
18.232,0.325513196,0.28515625,0.35301353
18.24,0.321603128,0.28515625,0.359163592
18.248,0.316715543,0.28515625,0.365313653
18.256,0.311827957,0.28515625,0.370233702
18.264,0.306940371,0.294921875,0.376383764
18.272,0.303030303,0.30078125,0.382533825
18.28,0.299120235,0.310546875,0.388683887
18.288,0.295210166,0.314453125,0.394833948
18.296,0.292277615,0.314453125,0.40098401
18.304,0.289345064,0.314453125,0.408364084
18.312,0.286412512,0.3203125,0.414514145
18.32,0.284457478,0.32421875,0.420664207
18.328,0.283479961,0.32421875,0.426814268
18.336,0.281524927,0.330078125,0.431734317
18.344,0.279569892,0.330078125,0.437884379
18.352,0.276637341,0.3359375,0.44403444
18.36,0.27370479,0.33984375,0.44895449
18.368,0.270772239,0.349609375,0.455104551
18.376,0.267839687,0.35546875,0.461254613
18.384,0.265884653,0.359375,0.467404674
18.392,0.262952102,0.359375,0.472324723
18.4,0.260997067,0.365234375,0.478474785
18.408,0.258064516,0.365234375,0.483394834
18.416,0.256109482,0.375,0.489544895
18.424,0.254154448,0.380859375,0.495694957
18.432,0.252199413,0.380859375,0.500615006
18.44,0.250244379,0.390625,0.506765068
18.448,0.248289345,0.404296875,0.512915129
18.456,0.245356794,0.416015625,0.519065191
18.464,0.24340176,0.4296875,0.525215252
18.472,0.240469208,0.435546875,0.531365314
18.48,0.238514174,0.44921875,0.536285363
18.488,0.235581623,0.455078125,0.541205412
18.496,0.232649071,0.474609375,0.546125461
18.504,0.230694037,0.48046875,0.549815498
18.512,0.228739003,0.484375,0.553505535
18.52,0.227761486,0.490234375,0.557195572
18.528,0.226783969,0.48046875,0.560885609
18.536,0.225806452,0.46484375,0.563345633
18.544,0.224828935,0.439453125,0.565805658
18.552,0.223851417,0.41015625,0.568265683
18.56,0.2228739,0.375,0.569495695
18.568,0.221896383,0.33984375,0.57195572
18.576,0.220918866,0.310546875,0.57195572
18.584,0.219941349,0.291015625,0.573185732
18.592,0.217986315,0.28515625,0.574415744
18.6,0.217008798,0.279296875,0.574415744
18.608,0.215053763,0.275390625,0.575645756
18.616,0.214076246,0.275390625,0.576875769
18.624,0.214076246,0.279296875,0.576875769
18.632,0.213098729,0.279296875,0.578105781
18.64,0.211143695,0.275390625,0.578105781
18.648,0.209188661,0.28515625,0.579335793
18.656,0.208211144,0.279296875,0.579335793
18.664,0.207233627,0.279296875,0.579335793
18.672,0.209188661,0.28515625,0.580565806
18.68,0.214076246,0.28515625,0.580565806
18.688,0.224828935,0.28515625,0.581795818
18.696,0.241446725,0.291015625,0.581795818
18.704,0.26686217,0.28515625,0.581795818
18.712,0.300097752,0.28515625,0.58302583
18.72,0.335288368,0.291015625,0.58302583
18.728,0.372434018,0.291015625,0.58302583
18.736,0.419354839,0.291015625,0.584255843
18.744,0.470185728,0.28515625,0.585485855
18.752,0.521994135,0.28515625,0.586715867
18.76,0.569892473,0.291015625,0.589175892
18.768,0.611925709,0.28515625,0.591635916
18.776,0.64516129,0.291015625,0.594095941
18.784,0.669599218,0.28515625,0.596555966
18.792,0.684261975,0.291015625,0.59901599
18.8,0.690127077,0.28515625,0.600246002
18.808,0.688172043,0.28515625,0.602706027
18.816,0.68230694,0.28515625,0.603936039
18.824,0.672531769,0.28515625,0.605166052
18.832,0.660801564,0.28515625,0.607626076
18.84,0.647116325,0.291015625,0.610086101
18.848,0.635386119,0.294921875,0.611316113
18.856,0.624633431,0.294921875,0.613776138
18.864,0.615835777,0.294921875,0.61500615
18.872,0.611925709,0.3046875,0.617466175
18.88,0.609970674,0.30078125,0.618696187
18.888,0.611925709,0.30078125,0.619926199
18.896,0.616813294,0.3046875,0.621156212
18.904,0.622678397,0.30078125,0.622386224
18.912,0.6285435,0.3046875,0.623616236
18.92,0.632453568,0.3046875,0.624846248
18.928,0.634408602,0.3046875,0.626076261
18.936,0.634408602,0.310546875,0.628536285
18.944,0.631476051,0.310546875,0.63099631
18.952,0.625610948,0.310546875,0.633456335
18.96,0.615835777,0.310546875,0.634686347
18.968,0.602150538,0.314453125,0.637146371
18.976,0.586510264,0.32421875,0.639606396
18.984,0.568914956,0.345703125,0.642066421
18.992,0.551319648,0.359375,0.644526445
19,0.534701857,0.359375,0.64698647
19.008,0.520039101,0.359375,0.649446494
19.016,0.508308895,0.359375,0.651906519
19.024,0.499511241,0.359375,0.654366544
19.032,0.492668622,0.349609375,0.656826568
19.04,0.487781036,0.3359375,0.659286593
19.048,0.484848485,0.3203125,0.661746617
19.056,0.481915934,0.30078125,0.664206642
19.064,0.480938416,0.291015625,0.666666667
19.072,0.479960899,0.28515625,0.670356704
19.08,0.478005865,0.28515625,0.672816728
19.088,0.476050831,0.294921875,0.675276753
19.096,0.47311828,0.279296875,0.677736777
19.104,0.469208211,0.201171875,0.680196802
19.112,0.463343109,0.220703125,0.682656827
19.12,0.458455523,0.384765625,0.683886839
19.128,0.45259042,0.765625,0.685116851
19.136,0.441837732,1.0390625,0.686346863
19.144,0.432062561,0.794921875,0.687576876
19.152,0.425219941,0.4453125,0.687576876
19.16,0.416422287,0.3203125,0.688806888
19.168,0.407624633,0.279296875,0.6900369
19.176,0.406647116,0.28515625,0.691266913
19.184,0.410557185,0.294921875,0.691266913
19.192,0.408602151,0.28515625,0.691266913
19.2,0.402737048,0.279296875,0.6900369
19.208,0.396871945,0.28515625,0.6900369
19.216,0.39198436,0.28515625,0.687576876
19.224,0.387096774,0.28515625,0.686346863
19.232,0.381231672,0.28515625,0.685116851
19.24,0.376344086,0.291015625,0.682656827
19.248,0.3714565,0.30078125,0.680196802
19.256,0.367546432,0.294921875,0.67896679
19.264,0.363636364,0.30078125,0.676506765
19.272,0.361681329,0.30078125,0.67404674
19.28,0.359726295,0.3046875,0.670356704
19.288,0.357771261,0.310546875,0.667896679
19.296,0.355816227,0.310546875,0.665436654
19.304,0.353861193,0.310546875,0.661746617
19.312,0.352883675,0.314453125,0.658056581
19.32,0.351906158,0.3203125,0.655596556
19.328,0.351906158,0.3203125,0.650676507
19.336,0.350928641,0.330078125,0.64698647
19.344,0.349951124,0.330078125,0.643296433
19.352,0.349951124,0.3359375,0.639606396
19.36,0.348973607,0.33984375,0.634686347
19.368,0.348973607,0.349609375,0.63099631
19.376,0.348973607,0.359375,0.627306273
19.384,0.348973607,0.359375,0.622386224
19.392,0.348973607,0.365234375,0.617466175
19.4,0.34799609,0.375,0.613776138
19.408,0.347018573,0.380859375,0.608856089
19.416,0.347018573,0.380859375,0.603936039
19.424,0.347018573,0.39453125,0.597785978
19.432,0.347018573,0.404296875,0.592865929
19.44,0.346041056,0.41015625,0.587945879
19.448,0.345063539,0.42578125,0.58302583
19.456,0.345063539,0.435546875,0.576875769
19.464,0.345063539,0.44921875,0.57195572
19.472,0.345063539,0.455078125,0.565805658
19.48,0.345063539,0.46484375,0.558425584
19.488,0.345063539,0.470703125,0.55104551
19.496,0.345063539,0.474609375,0.543665437
19.504,0.346041056,0.46484375,0.537515375
19.512,0.346041056,0.44921875,0.530135301
19.52,0.347018573,0.42578125,0.522755228
19.528,0.34799609,0.390625,0.516605166
19.536,0.348973607,0.359375,0.50799508
19.544,0.349951124,0.330078125,0.499384994
19.552,0.350928641,0.3046875,0.489544895
19.56,0.350928641,0.28515625,0.480934809
19.568,0.351906158,0.279296875,0.471094711
19.576,0.351906158,0.275390625,0.4600246
19.584,0.351906158,0.265625,0.450184502
19.592,0.351906158,0.265625,0.439114391
19.6,0.351906158,0.265625,0.429274293
19.608,0.351906158,0.265625,0.420664207
19.616,0.350928641,0.265625,0.410824108
19.624,0.350928641,0.26953125,0.402214022
19.632,0.349951124,0.275390625,0.393603936
19.64,0.349951124,0.275390625,0.38499385
19.648,0.350928641,0.275390625,0.375153752
19.656,0.353861193,0.279296875,0.366543665
19.664,0.360703812,0.279296875,0.359163592
19.672,0.373411535,0.279296875,0.351783518
19.68,0.405669599,0.279296875,0.344403444
19.688,0.434995112,0.28515625,0.338253383
19.696,0.472140762,0.279296875,0.332103321
19.704,0.536656891,0.28515625,0.32595326
19.712,0.576735093,0.275390625,0.319803198
19.72,0.613880743,0.275390625,0.313653137
19.728,0.653958944,0.26953125,0.308733087
19.736,0.696969697,0.275390625,0.303813038
19.744,0.732160313,0.275390625,0.298892989
19.752,0.752688172,0.279296875,0.29397294
19.76,0.768328446,0.275390625,0.289052891
19.768,0.7771261,0.275390625,0.285362854
19.776,0.776148583,0.275390625,0.281672817
19.784,0.77028348,0.279296875,0.27798278
19.792,0.757575758,0.279296875,0.274292743
19.8,0.746823069,0.279296875,0.270602706
19.808,0.737047898,0.28515625,0.268142681
19.816,0.728250244,0.28515625,0.264452645
19.824,0.721407625,0.28515625,0.260762608
19.832,0.716520039,0.28515625,0.258302583
19.84,0.714565005,0.28515625,0.254612546
19.848,0.714565005,0.28515625,0.252152522
19.856,0.718475073,0.28515625,0.247232472
19.864,0.721407625,0.28515625,0.243542435
19.872,0.725317693,0.28515625,0.238622386
19.88,0.728250244,0.294921875,0.233702337
19.888,0.728250244,0.294921875,0.228782288
19.896,0.724340176,0.294921875,0.223862239
19.904,0.718475073,0.294921875,0.218942189
19.912,0.709677419,0.3046875,0.21402214
19.92,0.696969697,0.3046875,0.209102091
19.928,0.68230694,0.3046875,0.204182042
19.936,0.66568915,0.3046875,0.199261993
19.944,0.649071359,0.3046875,0.195571956
19.952,0.631476051,0.3046875,0.190651907
19.96,0.615835777,0.30078125,0.18696187
19.968,0.602150538,0.3046875,0.183271833
19.976,0.589442815,0.3046875,0.179581796
19.984,0.579667644,0.310546875,0.175891759
19.992,0.573802542,0.310546875,0.173431734
20,0.568914956,0.32421875,0.169741697
20.008,0.565982405,0.349609375,0.167281673
20.016,0.563049853,0.359375,0.164821648
20.024,0.561094819,0.35546875,0.162361624
20.032,0.559139785,0.349609375,0.159901599
20.04,0.556207234,0.359375,0.157441574
20.048,0.552297165,0.359375,0.15498155
20.056,0.548387097,0.33984375,0.152521525
20.064,0.539589443,0.330078125,0.151291513
20.072,0.532746823,0.314453125,0.148831488
20.08,0.524926686,0.294921875,0.147601476
20.088,0.518084066,0.28515625,0.146371464
20.096,0.51026393,0.28515625,0.145141451
20.104,0.502443793,0.28515625,0.143911439
20.112,0.493646139,0.291015625,0.142681427
20.12,0.483870968,0.26953125,0.142681427
20.128,0.472140762,0.189453125,0.141451415
20.136,0.462365591,0.220703125,0.140221402
20.144,0.455522972,0.42578125,0.13899139
20.152,0.447702835,0.830078125,0.137761378
20.16,0.439882698,1.09375,0.136531365
20.168,0.433040078,0.78515625,0.135301353
20.176,0.426197458,0.4609375,0.134071341
20.184,0.420332356,0.330078125,0.132841328
20.192,0.416422287,0.294921875,0.131611316
20.2,0.411534702,0.291015625,0.130381304
20.208,0.405669599,0.291015625,0.129151292
20.216,0.400782014,0.28515625,0.127921279
20.224,0.395894428,0.275390625,0.127921279
20.232,0.39198436,0.279296875,0.127921279
20.24,0.387096774,0.279296875,0.126691267
20.248,0.384164223,0.279296875,0.126691267
20.256,0.380254154,0.28515625,0.125461255
20.264,0.377321603,0.279296875,0.125461255
20.272,0.374389052,0.28515625,0.124231242
20.28,0.3714565,0.291015625,0.124231242
20.288,0.368523949,0.294921875,0.124231242
20.296,0.367546432,0.30078125,0.124231242
20.304,0.365591398,0.30078125,0.124231242
20.312,0.363636364,0.310546875,0.124231242
20.32,0.361681329,0.310546875,0.124231242
20.328,0.359726295,0.310546875,0.125461255
20.336,0.357771261,0.314453125,0.125461255
20.344,0.355816227,0.3203125,0.126691267
20.352,0.352883675,0.330078125,0.126691267
20.36,0.350928641,0.3359375,0.127921279
20.368,0.348973607,0.33984375,0.127921279
20.376,0.346041056,0.33984375,0.129151292
20.384,0.344086022,0.349609375,0.129151292
20.392,0.343108504,0.349609375,0.130381304
20.4,0.34115347,0.359375,0.130381304
20.408,0.339198436,0.359375,0.131611316
20.416,0.336265885,0.37109375,0.131611316
20.424,0.33431085,0.375,0.132841328
20.432,0.332355816,0.380859375,0.134071341
20.44,0.330400782,0.384765625,0.134071341
20.448,0.327468231,0.39453125,0.135301353
20.456,0.325513196,0.404296875,0.136531365
20.464,0.323558162,0.416015625,0.136531365
20.472,0.321603128,0.42578125,0.136531365
20.48,0.320625611,0.435546875,0.136531365
20.488,0.319648094,0.4453125,0.136531365
20.496,0.318670577,0.455078125,0.135301353
20.504,0.31769306,0.470703125,0.135301353
20.512,0.316715543,0.474609375,0.134071341
20.52,0.315738025,0.48046875,0.132841328
20.528,0.314760508,0.474609375,0.132841328
20.536,0.313782991,0.455078125,0.131611316
20.544,0.311827957,0.4296875,0.130381304
20.552,0.31085044,0.400390625,0.129151292
20.56,0.309872923,0.37109375,0.127921279
20.568,0.307917889,0.33984375,0.127921279
20.576,0.306940371,0.310546875,0.126691267
20.584,0.305962854,0.30078125,0.125461255
20.592,0.305962854,0.28515625,0.124231242
20.6,0.304985337,0.279296875,0.12300123
20.608,0.303030303,0.26953125,0.121771218
20.616,0.301075269,0.26953125,0.120541205
20.624,0.299120235,0.26953125,0.119311193
20.632,0.298142717,0.26953125,0.118081181
20.64,0.299120235,0.26953125,0.116851169
20.648,0.30400782,0.275390625,0.115621156
20.656,0.314760508,0.26953125,0.114391144
20.664,0.331378299,0.275390625,0.114391144
20.672,0.355816227,0.279296875,0.114391144
20.68,0.395894428,0.279296875,0.114391144
20.688,0.433040078,0.275390625,0.114391144
20.696,0.465298143,0.28515625,0.114391144
20.704,0.507331378,0.28515625,0.114391144
20.712,0.554252199,0.28515625,0.115621156
20.72,0.602150538,0.28515625,0.115621156
20.728,0.647116325,0.28515625,0.116851169
20.736,0.691104594,0.28515625,0.116851169
20.744,0.725317693,0.291015625,0.118081181
20.752,0.744868035,0.28515625,0.118081181
20.76,0.75659824,0.28515625,0.119311193
20.768,0.762463343,0.28515625,0.120541205
20.776,0.758553275,0.28515625,0.120541205
20.784,0.752688172,0.28515625,0.121771218
20.792,0.746823069,0.28515625,0.12300123
20.8,0.738025415,0.291015625,0.124231242
20.808,0.729227761,0.291015625,0.124231242
20.816,0.720430108,0.291015625,0.125461255
20.824,0.714565005,0.291015625,0.127921279
20.832,0.710654936,0.294921875,0.129151292
20.84,0.709677419,0.294921875,0.130381304
20.848,0.711632454,0.294921875,0.132841328
20.856,0.715542522,0.291015625,0.134071341
20.864,0.720430108,0.291015625,0.135301353
20.872,0.72629521,0.30078125,0.136531365
20.88,0.730205279,0.30078125,0.137761378
20.888,0.73313783,0.30078125,0.13899139
20.896,0.736070381,0.30078125,0.140221402
20.904,0.736070381,0.30078125,0.140221402
20.912,0.73313783,0.3046875,0.141451415
20.92,0.729227761,0.3046875,0.142681427
20.928,0.721407625,0.3046875,0.143911439
20.936,0.708699902,0.310546875,0.143911439
20.944,0.694037146,0.3046875,0.145141451
20.952,0.676441838,0.3046875,0.146371464
20.96,0.657869013,0.3046875,0.146371464
20.968,0.638318671,0.310546875,0.147601476
20.976,0.619745846,0.310546875,0.147601476
20.984,0.604105572,0.310546875,0.148831488
20.992,0.591397849,0.310546875,0.148831488
21,0.579667644,0.310546875,0.150061501
21.008,0.569892473,0.314453125,0.151291513
21.016,0.563049853,0.32421875,0.152521525
21.024,0.558162268,0.3359375,0.153751538
21.032,0.554252199,0.359375,0.15498155
21.04,0.552297165,0.365234375,0.156211562
21.048,0.550342131,0.359375,0.157441574
21.056,0.548387097,0.359375,0.158671587
21.064,0.544477028,0.37109375,0.159901599
21.072,0.54056696,0.375,0.161131611
21.08,0.537634409,0.35546875,0.162361624
21.088,0.53372434,0.33984375,0.164821648
21.096,0.525904203,0.32421875,0.166051661
21.104,0.517106549,0.30078125,0.167281673
21.112,0.51026393,0.294921875,0.168511685
21.12,0.499511241,0.294921875,0.169741697
21.128,0.48973607,0.294921875,0.17097171
21.136,0.481915934,0.291015625,0.173431734
21.144,0.47311828,0.265625,0.174661747
21.152,0.462365591,0.1953125,0.177121771
21.16,0.451612903,0.240234375,0.179581796
21.168,0.443792766,0.490234375,0.183271833
21.176,0.434995112,0.87890625,0.18696187
21.184,0.427174976,1.05859375,0.189421894
21.192,0.408602151,0.708984375,0.193111931
21.2,0.384164223,0.42578125,0.196801968
21.208,0.368523949,0.330078125,0.199261993
21.216,0.356793744,0.291015625,0.20295203
21.224,0.348973607,0.294921875,0.205412054
21.232,0.340175953,0.28515625,0.209102091
21.24,0.332355816,0.28515625,0.212792128
21.248,0.325513196,0.28515625,0.216482165
21.256,0.320625611,0.28515625,0.220172202
21.264,0.315738025,0.28515625,0.223862239
21.272,0.31085044,0.294921875,0.227552276
21.28,0.306940371,0.30078125,0.2300123
21.288,0.303030303,0.294921875,0.233702337
21.296,0.299120235,0.3046875,0.237392374
21.304,0.296187683,0.310546875,0.241082411
21.312,0.293255132,0.310546875,0.244772448
21.32,0.290322581,0.310546875,0.248462485
21.328,0.285434995,0.310546875,0.253382534
21.336,0.283479961,0.314453125,0.258302583
21.344,0.28054741,0.32421875,0.263222632
21.352,0.276637341,0.330078125,0.268142681
21.36,0.27370479,0.3359375,0.271832718
21.368,0.270772239,0.3359375,0.275522755
21.376,0.267839687,0.3359375,0.279212792
21.384,0.265884653,0.3359375,0.281672817
21.392,0.263929619,0.33984375,0.285362854
21.4,0.260997067,0.359375,0.290282903
21.408,0.258064516,0.359375,0.29397294
21.416,0.255131965,0.359375,0.298892989
21.424,0.252199413,0.365234375,0.303813038
21.432,0.249266862,0.365234375,0.308733087
21.44,0.246334311,0.375,0.312423124
21.448,0.24340176,0.380859375,0.317343173
21.456,0.241446725,0.384765625,0.322263223
21.464,0.238514174,0.39453125,0.327183272
21.472,0.23655914,0.404296875,0.330873309
21.48,0.235581623,0.416015625,0.335793358
21.488,0.233626588,0.4296875,0.340713407
21.496,0.230694037,0.435546875,0.346863469
21.504,0.228739003,0.4453125,0.351783518
21.512,0.226783969,0.4609375,0.357933579
21.52,0.223851417,0.46484375,0.361623616
21.528,0.221896383,0.474609375,0.366543665
21.536,0.219941349,0.490234375,0.371463715
21.544,0.217986315,0.490234375,0.375153752
21.552,0.216031281,0.474609375,0.378843788
21.56,0.215053763,0.4609375,0.381303813
21.568,0.213098729,0.4296875,0.383763838
21.576,0.213098729,0.404296875,0.386223862
21.584,0.213098729,0.375,0.387453875
21.592,0.213098729,0.345703125,0.389913899
21.6,0.212121212,0.3203125,0.389913899
21.608,0.210166178,0.30078125,0.391143911
21.616,0.209188661,0.291015625,0.392373924
21.624,0.207233627,0.279296875,0.393603936
21.632,0.205278592,0.275390625,0.393603936
21.64,0.203323558,0.26953125,0.394833948
21.648,0.202346041,0.275390625,0.394833948
21.656,0.204301075,0.275390625,0.396063961
21.664,0.209188661,0.275390625,0.397293973
21.672,0.217986315,0.279296875,0.398523985
21.68,0.231671554,0.279296875,0.399753998
21.688,0.253176931,0.279296875,0.40098401
21.696,0.282502444,0.28515625,0.402214022
21.704,0.320625611,0.279296875,0.403444034
21.712,0.365591398,0.279296875,0.404674047
21.72,0.41544477,0.279296875,0.407134071
21.728,0.467253177,0.28515625,0.408364084
21.736,0.519061584,0.28515625,0.409594096
21.744,0.566959922,0.28515625,0.412054121
21.752,0.608993157,0.279296875,0.414514145
21.76,0.642228739,0.279296875,0.41697417
21.768,0.66568915,0.279296875,0.420664207
21.776,0.679374389,0.279296875,0.423124231
21.784,0.684261975,0.28515625,0.426814268
21.792,0.683284457,0.28515625,0.430504305
21.8,0.678396872,0.28515625,0.434194342
21.808,0.670576735,0.28515625,0.437884379
21.816,0.659824047,0.28515625,0.441574416
21.824,0.648093842,0.294921875,0.446494465
21.832,0.636363636,0.291015625,0.451414514
21.84,0.627565982,0.28515625,0.455104551
21.848,0.620723363,0.28515625,0.458794588
21.856,0.616813294,0.28515625,0.461254613
21.864,0.615835777,0.28515625,0.464944649
21.872,0.616813294,0.291015625,0.467404674
21.88,0.618768328,0.294921875,0.469864699
21.888,0.622678397,0.30078125,0.473554736
21.896,0.6285435,0.291015625,0.477244772
21.904,0.634408602,0.294921875,0.479704797
21.912,0.639296188,0.294921875,0.482164822
21.92,0.641251222,0.30078125,0.485854859
21.928,0.640273705,0.30078125,0.488314883
21.936,0.634408602,0.30078125,0.490774908
21.944,0.625610948,0.3046875,0.494464945
21.952,0.612903226,0.3046875,0.498154982
21.96,0.596285435,0.3046875,0.500615006
21.968,0.578690127,0.310546875,0.505535055
21.976,0.562072336,0.310546875,0.509225092
21.984,0.546432063,0.310546875,0.514145141
21.992,0.530791789,0.310546875,0.519065191
22,0.516129032,0.310546875,0.522755228
22.008,0.50342131,0.32421875,0.526445264
22.016,0.493646139,0.349609375,0.530135301
22.024,0.485826002,0.359375,0.533825338
22.032,0.480938416,0.37109375,0.537515375
22.04,0.477028348,0.359375,0.542435424
22.048,0.476050831,0.359375,0.547355474
22.056,0.474095797,0.365234375,0.55104551
22.064,0.47311828,0.37109375,0.55596556
22.072,0.471163245,0.345703125,0.559655597
22.08,0.469208211,0.3359375,0.563345633
22.088,0.46627566,0.314453125,0.56703567
22.096,0.462365591,0.294921875,0.570725707
22.104,0.456500489,0.294921875,0.574415744
22.112,0.450635386,0.3046875,0.578105781
22.12,0.442815249,0.294921875,0.581795818
22.128,0.434017595,0.28515625,0.584255843
22.136,0.425219941,0.240234375,0.587945879
22.144,0.414467253,0.201171875,0.590405904
22.152,0.404692082,0.28515625,0.594095941
22.16,0.393939394,0.595703125,0.596555966
22.168,0.38514174,0.974609375,0.59901599
22.176,0.377321603,1.05859375,0.600246002
22.184,0.368523949,0.583984375,0.602706027
22.192,0.359726295,0.365234375,0.605166052
22.2,0.351906158,0.3046875,0.606396064
22.208,0.344086022,0.28515625,0.607626076
22.216,0.337243402,0.3046875,0.608856089
22.224,0.331378299,0.294921875,0.608856089
22.232,0.325513196,0.291015625,0.608856089
22.24,0.320625611,0.291015625,0.610086101
22.248,0.316715543,0.28515625,0.610086101
22.256,0.312805474,0.28515625,0.610086101
22.264,0.308895406,0.28515625,0.610086101
22.272,0.305962854,0.294921875,0.610086101
22.28,0.30400782,0.30078125,0.608856089
22.288,0.302052786,0.3046875,0.608856089
22.296,0.300097752,0.310546875,0.607626076
22.304,0.2971652,0.310546875,0.606396064
22.312,0.296187683,0.310546875,0.603936039
22.32,0.295210166,0.310546875,0.602706027
22.328,0.294232649,0.314453125,0.600246002
22.336,0.293255132,0.32421875,0.597785978
22.344,0.292277615,0.330078125,0.596555966
22.352,0.290322581,0.3359375,0.594095941
22.36,0.289345064,0.3359375,0.591635916
22.368,0.289345064,0.33984375,0.587945879
22.376,0.289345064,0.33984375,0.585485855
22.384,0.288367546,0.345703125,0.58302583
22.392,0.287390029,0.345703125,0.580565806
22.4,0.286412512,0.35546875,0.576875769
22.408,0.285434995,0.359375,0.574415744
22.416,0.284457478,0.359375,0.57195572
22.424,0.282502444,0.359375,0.568265683
22.432,0.281524927,0.37109375,0.565805658
22.44,0.279569892,0.380859375,0.562115621
22.448,0.278592375,0.380859375,0.559655597
22.456,0.277614858,0.390625,0.55596556
22.464,0.277614858,0.404296875,0.553505535
22.472,0.276637341,0.416015625,0.549815498
22.48,0.277614858,0.4296875,0.546125461
22.488,0.276637341,0.435546875,0.542435424
22.496,0.276637341,0.4453125,0.538745387
22.504,0.275659824,0.455078125,0.535055351
22.512,0.274682307,0.46484375,0.528905289
22.52,0.27370479,0.474609375,0.52398524
22.528,0.271749756,0.48046875,0.519065191
22.536,0.270772239,0.484375,0.512915129
22.544,0.269794721,0.46484375,0.506765068
22.552,0.268817204,0.439453125,0.501845018
22.56,0.26686217,0.41015625,0.495694957
22.568,0.26686217,0.380859375,0.489544895
22.576,0.26686217,0.349609375,0.483394834
22.584,0.26686217,0.3203125,0.47601476
22.592,0.265884653,0.3046875,0.468634686
22.6,0.264907136,0.291015625,0.461254613
22.608,0.263929619,0.275390625,0.453874539
22.616,0.261974585,0.26953125,0.445264453
22.624,0.260997067,0.26953125,0.437884379
22.632,0.26001955,0.265625,0.430504305
22.64,0.259042033,0.265625,0.423124231
22.648,0.260997067,0.275390625,0.415744157
22.656,0.26686217,0.275390625,0.408364084
22.664,0.277614858,0.275390625,0.402214022
22.672,0.292277615,0.279296875,0.396063961
22.68,0.311827957,0.28515625,0.388683887
22.688,0.34115347,0.28515625,0.382533825
22.696,0.37829912,0.28515625,0.376383764
22.704,0.42228739,0.28515625,0.370233702
22.712,0.471163245,0.28515625,0.365313653
22.72,0.521994135,0.28515625,0.359163592
22.728,0.572825024,0.28515625,0.35301353
22.736,0.618768328,0.28515625,0.348093481
22.744,0.65884653,0.28515625,0.343173432
22.752,0.691104594,0.28515625,0.338253383
22.76,0.713587488,0.279296875,0.334563346
22.768,0.72629521,0.275390625,0.329643296
22.776,0.731182796,0.28515625,0.324723247
22.784,0.731182796,0.28515625,0.319803198
22.792,0.727272727,0.279296875,0.314883149
22.8,0.718475073,0.279296875,0.311193112
22.808,0.708699902,0.28515625,0.306273063
22.816,0.696969697,0.28515625,0.302583026
22.824,0.687194526,0.28515625,0.298892989
22.832,0.678396872,0.28515625,0.29397294
22.84,0.673509286,0.28515625,0.290282903
22.848,0.670576735,0.28515625,0.285362854
22.856,0.671554252,0.28515625,0.281672817
22.864,0.674486804,0.291015625,0.27798278
22.872,0.677419355,0.294921875,0.273062731
22.88,0.680351906,0.291015625,0.269372694
22.888,0.685239492,0.294921875,0.265682657
22.896,0.68914956,0.294921875,0.26199262
22.904,0.692082111,0.30078125,0.258302583
22.912,0.692082111,0.294921875,0.253382534
22.92,0.68914956,0.30078125,0.249692497
22.928,0.683284457,0.30078125,0.244772448
22.936,0.672531769,0.291015625,0.241082411
22.944,0.65884653,0.294921875,0.236162362
22.952,0.643206256,0.294921875,0.231242312
22.96,0.625610948,0.30078125,0.227552276
22.968,0.608993157,0.30078125,0.222632226
22.976,0.594330401,0.3046875,0.218942189
22.984,0.578690127,0.3046875,0.215252153
22.992,0.565004888,0.310546875,0.211562116
23,0.553274682,0.310546875,0.207872079
23.008,0.544477028,0.310546875,0.20295203
23.016,0.537634409,0.310546875,0.199261993
23.024,0.532746823,0.32421875,0.195571956
23.032,0.529814272,0.345703125,0.191881919
23.04,0.52688172,0.365234375,0.188191882
23.048,0.523949169,0.359375,0.184501845
23.056,0.521994135,0.359375,0.18204182
23.064,0.519061584,0.359375,0.178351784
23.072,0.516129032,0.359375,0.175891759
23.08,0.512218964,0.35546875,0.173431734
23.088,0.506353861,0.3359375,0.17097171
23.096,0.500488759,0.330078125,0.169741697
23.104,0.492668622,0.3046875,0.168511685
23.112,0.483870968,0.294921875,0.167281673
23.12,0.475073314,0.291015625,0.166051661
23.128,0.465298143,0.291015625,0.164821648
23.136,0.455522972,0.291015625,0.163591636
23.144,0.445747801,0.28515625,0.163591636
23.152,0.434995112,0.224609375,0.162361624
23.16,0.425219941,0.201171875,0.161131611
23.168,0.417399804,0.3046875,0.159901599
23.176,0.409579668,0.654296875,0.158671587
23.184,0.401759531,1.05859375,0.158671587
23.192,0.392961877,1.083984375,0.157441574
23.2,0.386119257,0.57421875,0.157441574
23.208,0.37829912,0.365234375,0.156211562
23.216,0.3714565,0.310546875,0.15498155
23.224,0.364613881,0.294921875,0.153751538
23.232,0.368523949,0.30078125,0.151291513
23.24,0.377321603,0.291015625,0.150061501
23.248,0.379276637,0.28515625,0.148831488
23.256,0.37829912,0.28515625,0.147601476
