Time,PPG,ECG,resp
0,0.704789834,0.01372549,0.424354244
0.008,0.703812317,0.074509804,0.423124231
0.016,0.699902248,0.223529412,0.421894219
0.024,0.693059629,0.349019608,0.420664207
0.032,0.684261975,0.370588235,0.420664207
0.04,0.672531769,-0.211764706,0.420664207
0.048,0.65884653,-0.47254902,0.419434194
0.056,0.64516129,-0.398039216,0.419434194
0.064,0.630498534,-0.217647059,0.419434194
0.072,0.61485826,-0.150980392,0.418204182
0.08,0.597262952,-0.137254902,0.41697417
0.088,0.578690127,-0.131372549,0.415744157
0.096,0.560117302,-0.141176471,0.413284133
0.104,0.541544477,-0.131372549,0.410824108
0.112,0.522971652,-0.141176471,0.408364084
0.12,0.505376344,-0.131372549,0.405904059
0.128,0.488758553,-0.141176471,0.402214022
0.136,0.472140762,-0.131372549,0.399753998
0.144,0.457478006,-0.141176471,0.398523985
0.152,0.442815249,-0.131372549,0.396063961
0.16,0.432062561,-0.141176471,0.393603936
0.168,0.42228739,-0.131372549,0.392373924
0.176,0.411534702,-0.141176471,0.389913899
0.184,0.401759531,-0.131372549,0.388683887
0.192,0.39198436,-0.141176471,0.386223862
0.2,0.384164223,-0.121568627,0.383763838
0.208,0.375366569,-0.131372549,0.381303813
0.216,0.368523949,-0.111764706,0.378843788
0.224,0.360703812,-0.105882353,0.376383764
0.232,0.35483871,-0.076470588,0.373923739
0.24,0.34799609,-0.056862745,0.370233702
0.248,0.342130987,-0.015686275,0.367773678
0.256,0.337243402,0.007843137,0.364083641
0.264,0.333333333,0.049019608,0.360393604
0.272,0.330400782,0.074509804,0.357933579
0.28,0.326490714,0.11372549,0.355473555
0.288,0.322580645,0.139215686,0.35301353
0.296,0.318670577,0.158823529,0.350553506
0.304,0.314760508,0.174509804,0.348093481
0.312,0.311827957,0.164705882,0.345633456
0.32,0.307917889,0.149019608,0.343173432
0.328,0.30400782,0.133333333,0.340713407
0.336,0.301075269,0.109803922,0.338253383
0.344,0.298142717,0.094117647,0.33702337
0.352,0.296187683,0.084313725,0.334563346
0.36,0.294232649,0.068627451,0.333333333
0.368,0.293255132,0.074509804,0.332103321
0.376,0.292277615,0.049019608,0.330873309
0.384,0.292277615,0.058823529,0.329643296
0.392,0.291300098,0.049019608,0.328413284
0.4,0.291300098,0.068627451,0.328413284
0.408,0.291300098,0.062745098,0.327183272
0.416,0.291300098,0.074509804,0.32595326
0.424,0.292277615,0.068627451,0.32595326
0.432,0.293255132,0.078431373,0.32595326
0.44,0.295210166,0.068627451,0.32595326
0.448,0.298142717,0.078431373,0.32595326
0.456,0.303030303,0.062745098,0.32595326
0.464,0.31085044,0.068627451,0.32595326
0.472,0.321603128,0.052941176,0.32595326
0.48,0.335288368,0.043137255,0.324723247
0.488,0.355816227,0.039215686,0.324723247
0.496,0.384164223,0.033333333,0.322263223
0.504,0.418377322,0.043137255,0.32103321
0.512,0.457478006,0.029411765,0.319803198
0.52,0.500488759,0.039215686,0.317343173
0.528,0.544477028,0.023529412,0.314883149
0.536,0.587487781,0.01372549,0.311193112
0.544,0.627565982,-0.001960784,0.307503075
0.552,0.664711632,0.01372549,0.303813038
0.56,0.697947214,-0.001960784,0.298892989
0.568,0.72629521,0.01372549,0.295202952
0.576,0.745845552,-0.001960784,0.290282903
0.584,0.760508309,0.003921569,0.285362854
0.592,0.772238514,-0.001960784,0.280442804
0.6,0.782013685,0.003921569,0.276752768
0.608,0.778103617,-0.001960784,0.271832718
0.616,0.764418377,0.029411765,0.266912669
0.624,0.75659824,0.094117647,0.26199262
0.632,0.750733138,0.249019608,0.257072571
0.64,0.743890518,0.374509804,0.252152522
0.648,0.737047898,0.384313725,0.247232472
0.656,0.727272727,-0.237254902,0.243542435
0.664,0.716520039,-0.468627451,0.239852399
0.672,0.703812317,-0.352941176,0.237392374
0.68,0.690127077,-0.182352941,0.233702337
0.688,0.676441838,-0.12745098,0.232472325
0.696,0.661779081,-0.121568627,0.2300123
0.704,0.64516129,-0.111764706,0.2300123
0.712,0.627565982,-0.121568627,0.228782288
0.72,0.608993157,-0.105882353,0.228782288
0.728,0.591397849,-0.117647059,0.227552276
0.736,0.573802542,-0.101960784,0.227552276
0.744,0.556207234,-0.121568627,0.226322263
0.752,0.539589443,-0.105882353,0.226322263
0.76,0.522971652,-0.117647059,0.226322263
0.768,0.508308895,-0.105882353,0.226322263
0.776,0.493646139,-0.121568627,0.225092251
0.784,0.481915934,-0.105882353,0.225092251
0.792,0.472140762,-0.117647059,0.226322263
0.8,0.461388074,-0.105882353,0.226322263
0.808,0.450635386,-0.117647059,0.227552276
0.816,0.440860215,-0.101960784,0.227552276
0.824,0.431085044,-0.101960784,0.227552276
0.832,0.42228739,-0.08627451,0.226322263
0.84,0.413489736,-0.07254902,0.226322263
0.848,0.405669599,-0.041176471,0.225092251
0.856,0.397849462,-0.02745098,0.223862239
0.864,0.391006843,0.01372549,0.222632226
0.872,0.383186706,0.033333333,0.221402214
0.88,0.377321603,0.074509804,0.220172202
0.888,0.3714565,0.094117647,0.218942189
0.896,0.366568915,0.133333333,0.217712177
0.904,0.360703812,0.158823529,0.217712177
0.912,0.35483871,0.178431373,0.216482165
0.92,0.348973607,0.168627451,0.216482165
0.928,0.342130987,0.164705882,0.215252153
0.936,0.336265885,0.149019608,0.215252153
0.944,0.329423265,0.123529412,0.215252153
0.952,0.323558162,0.109803922,0.215252153
0.96,0.316715543,0.084313725,0.216482165
0.968,0.31085044,0.074509804,0.216482165
0.976,0.304985337,0.062745098,0.216482165
0.984,0.299120235,0.068627451,0.217712177
0.992,0.294232649,0.039215686,0.217712177
1,0.290322581,0.043137255,0.217712177
1.008,0.287390029,0.029411765,0.218942189
1.016,0.283479961,0.043137255,0.218942189
1.024,0.28054741,0.043137255,0.218942189
1.032,0.277614858,0.058823529,0.218942189
1.04,0.275659824,0.049019608,0.218942189
1.048,0.274682307,0.062745098,0.217712177
1.056,0.275659824,0.049019608,0.217712177
1.064,0.279569892,0.062745098,0.216482165
1.072,0.286412512,0.052941176,0.216482165
1.08,0.298142717,0.052941176,0.216482165
1.088,0.315738025,0.033333333,0.216482165
1.096,0.339198436,0.029411765,0.216482165
1.104,0.363636364,0.017647059,0.215252153
1.112,0.391006843,0.01372549,0.21402214
1.12,0.424242424,0.023529412,0.210332103
1.128,0.462365591,0.01372549,0.207872079
1.136,0.501466276,0.023529412,0.204182042
1.144,0.539589443,0.003921569,0.200492005
1.152,0.575757576,0.007843137,0.195571956
1.16,0.608993157,-0.005882353,0.190651907
1.168,0.637341153,-0.001960784,0.185731857
1.176,0.661779081,-0.011764706,0.18204182
1.184,0.681329423,-0.001960784,0.177121771
1.192,0.696969697,-0.011764706,0.172201722
1.2,0.709677419,-0.005882353,0.166051661
1.208,0.716520039,-0.02745098,0.161131611
1.216,0.71945259,-0.021568627,0.15498155
1.224,0.722385142,-0.02745098,0.148831488
1.232,0.722385142,0.003921569,0.142681427
1.24,0.720430108,0.068627451,0.136531365
1.248,0.716520039,0.219607843,0.130381304
1.256,0.711632454,0.339215686,0.124231242
1.264,0.703812317,0.358823529,0.120541205
1.272,0.694037146,-0.22745098,0.115621156
1.28,0.68230694,-0.488235294,0.113161132
1.288,0.669599218,-0.407843137,0.110701107
1.296,0.653958944,-0.217647059,0.108241082
1.304,0.638318671,-0.147058824,0.10701107
1.312,0.622678397,-0.12745098,0.105781058
1.32,0.60801564,-0.121568627,0.104551046
1.328,0.591397849,-0.131372549,0.103321033
1.336,0.573802542,-0.117647059,0.103321033
1.344,0.557184751,-0.121568627,0.103321033
1.352,0.539589443,-0.117647059,0.103321033
1.36,0.522971652,-0.12745098,0.103321033
1.368,0.506353861,-0.117647059,0.102091021
1.376,0.490713587,-0.131372549,0.102091021
1.384,0.476050831,-0.121568627,0.102091021
1.392,0.462365591,-0.12745098,0.100861009
1.4,0.449657869,-0.117647059,0.099630996
1.408,0.437927664,-0.12745098,0.098400984
1.416,0.427174976,-0.121568627,0.095940959
1.424,0.418377322,-0.12745098,0.094710947
1.432,0.410557185,-0.117647059,0.093480935
1.44,0.402737048,-0.121568627,0.092250923
1.448,0.393939394,-0.101960784,0.09102091
1.456,0.387096774,-0.096078431,0.088560886
1.464,0.379276637,-0.07254902,0.086100861
1.472,0.3714565,-0.047058824,0.083640836
1.48,0.364613881,-0.005882353,0.0799508
1.488,0.357771261,0.023529412,0.078720787
1.496,0.351906158,0.049019608,0.076260763
1.504,0.345063539,0.068627451,0.076260763
1.512,0.338220919,0.109803922,0.07503075
1.52,0.333333333,0.133333333,0.07503075
1.528,0.328445748,0.164705882,0.07503075
1.536,0.322580645,0.158823529,0.076260763
1.544,0.316715543,0.154901961,0.077490775
1.552,0.309872923,0.133333333,0.077490775
1.56,0.30400782,0.11372549,0.078720787
1.568,0.298142717,0.098039216,0.078720787
1.576,0.292277615,0.074509804,0.0799508
1.584,0.286412512,0.058823529,0.0799508
1.592,0.28054741,0.039215686,0.081180812
1.6,0.275659824,0.052941176,0.082410824
1.608,0.270772239,0.039215686,0.083640836
1.616,0.26686217,0.043137255,0.084870849
1.624,0.263929619,0.029411765,0.086100861
1.632,0.261974585,0.039215686,0.088560886
1.64,0.259042033,0.039215686,0.09102091
1.648,0.257086999,0.062745098,0.092250923
1.656,0.255131965,0.049019608,0.094710947
1.664,0.254154448,0.068627451,0.095940959
1.672,0.255131965,0.062745098,0.098400984
1.68,0.257086999,0.074509804,0.099630996
1.688,0.262952102,0.078431373,0.100861009
1.696,0.271749756,0.068627451,0.102091021
1.704,0.284457478,0.074509804,0.104551046
1.712,0.30400782,0.043137255,0.105781058
1.72,0.328445748,0.033333333,0.10701107
1.728,0.353861193,0.023529412,0.108241082
1.736,0.381231672,0.043137255,0.109471095
1.744,0.41544477,0.007843137,0.110701107
1.752,0.45259042,0.007843137,0.111931119
1.76,0.491691105,0.029411765,0.113161132
1.768,0.528836755,0.003921569,0.114391144
1.776,0.56402737,-0.001960784,0.115621156
1.784,0.596285435,0.017647059,0.116851169
1.792,0.623655914,-0.015686275,0.116851169
1.8,0.647116325,0.003921569,0.116851169
1.808,0.66568915,0.007843137,0.116851169
1.816,0.680351906,-0.001960784,0.116851169
1.824,0.691104594,0.007843137,0.115621156
1.832,0.696969697,0.003921569,0.115621156
1.84,0.699902248,-0.021568627,0.115621156
1.848,0.700879765,0.01372549,0.114391144
1.856,0.699902248,-0.001960784,0.114391144
1.864,0.696969697,0.052941176,0.113161132
1.872,0.692082111,0.149019608,0.113161132
1.88,0.684261975,0.284313725,0.114391144
1.888,0.675464321,0.339215686,0.115621156
1.896,0.663734115,-0.005882353,0.116851169
1.904,0.651026393,-0.382352941,0.119311193
1.912,0.636363636,-0.488235294,0.121771218
1.92,0.620723363,-0.337254902,0.125461255
1.928,0.604105572,-0.166666667,0.129151292
1.936,0.588465298,-0.121568627,0.134071341
1.944,0.573802542,-0.141176471,0.13899139
1.952,0.557184751,-0.096078431,0.143911439
1.96,0.539589443,-0.096078431,0.148831488
1.968,0.521994135,-0.111764706,0.15498155
1.976,0.505376344,-0.101960784,0.159901599
1.984,0.48973607,-0.096078431,0.164821648
1.992,0.474095797,-0.096078431,0.169741697
2,0.45943304,-0.082352941,0.174661747
2.008,0.445747801,-0.111764706,0.180811808
2.016,0.433040078,-0.096078431,0.185731857
2.024,0.421309873,-0.117647059,0.190651907
2.032,0.409579668,-0.08627451,0.195571956
2.04,0.398826979,-0.105882353,0.201722017
2.048,0.391006843,-0.096078431,0.207872079
2.056,0.384164223,-0.111764706,0.212792128
2.064,0.376344086,-0.08627451,0.218942189
2.072,0.369501466,-0.076470588,0.225092251
2.08,0.362658847,-0.096078431,0.2300123
2.088,0.355816227,-0.056862745,0.236162362
2.096,0.349951124,-0.021568627,0.241082411
2.104,0.344086022,-0.005882353,0.24600246
2.112,0.338220919,0.043137255,0.250922509
2.12,0.332355816,0.062745098,0.257072571
2.128,0.327468231,0.11372549,0.26199262
2.136,0.321603128,0.139215686,0.266912669
2.144,0.316715543,0.174509804,0.271832718
2.152,0.312805474,0.203921569,0.276752768
2.16,0.308895406,0.2,0.281672817
2.168,0.304985337,0.209803922,0.286592866
2.176,0.300097752,0.184313725,0.291512915
2.184,0.295210166,0.168627451,0.296432964
2.192,0.290322581,0.143137255,0.300123001
2.2,0.285434995,0.129411765,0.303813038
2.208,0.28054741,0.109803922,0.307503075
2.216,0.276637341,0.103921569,0.312423124
2.224,0.272727273,0.088235294,0.316113161
2.232,0.268817204,0.084313725,0.319803198
2.24,0.265884653,0.068627451,0.323493235
2.248,0.262952102,0.078431373,0.328413284
2.256,0.261974585,0.068627451,0.333333333
2.264,0.260997067,0.084313725,0.338253383
2.272,0.26001955,0.074509804,0.343173432
2.28,0.26001955,0.088235294,0.348093481
2.288,0.259042033,0.094117647,0.35301353
2.296,0.26001955,0.094117647,0.359163592
2.304,0.260997067,0.098039216,0.364083641
2.312,0.262952102,0.094117647,0.36900369
2.32,0.26686217,0.098039216,0.372693727
2.328,0.271749756,0.094117647,0.377613776
2.336,0.279569892,0.098039216,0.381303813
2.344,0.290322581,0.078431373,0.38499385
2.352,0.306940371,0.062745098,0.389913899
2.36,0.323558162,0.043137255,0.393603936
2.368,0.344086022,0.039215686,0.398523985
2.376,0.3714565,0.029411765,0.403444034
2.384,0.402737048,0.043137255,0.408364084
2.392,0.436950147,0.029411765,0.412054121
2.4,0.47311828,0.033333333,0.415744157
2.408,0.508308895,0.017647059,0.419434194
2.416,0.541544477,0.01372549,0.420664207
2.424,0.571847507,-0.001960784,0.423124231
2.432,0.599217986,0.007843137,0.423124231
2.44,0.62170088,-0.001960784,0.423124231
2.448,0.640273705,0.007843137,0.420664207
2.456,0.654936461,-0.005882353,0.419434194
2.464,0.664711632,0.003921569,0.415744157
2.472,0.670576735,-0.005882353,0.412054121
2.48,0.674486804,-0.001960784,0.408364084
2.488,0.676441838,-0.005882353,0.404674047
2.496,0.675464321,0.029411765,0.40098401
2.504,0.672531769,0.123529412,0.397293973
2.512,0.666666667,0.268627451,0.392373924
2.52,0.65884653,0.380392157,0.388683887
2.528,0.649071359,0.154901961,0.38499385
2.536,0.636363636,-0.337254902,0.382533825
2.544,0.622678397,-0.47254902,0.380073801
2.552,0.60801564,-0.32745098,0.377613776
2.56,0.592375367,-0.182352941,0.376383764
2.568,0.57771261,-0.137254902,0.375153752
2.576,0.563049853,-0.141176471,0.373923739
2.584,0.54740958,-0.137254902,0.373923739
2.592,0.530791789,-0.147058824,0.373923739
2.6,0.514173998,-0.137254902,0.373923739
2.608,0.498533724,-0.141176471,0.373923739
2.616,0.482893451,-0.137254902,0.373923739
2.624,0.467253177,-0.141176471,0.373923739
2.632,0.451612903,-0.131372549,0.373923739
2.64,0.436950147,-0.141176471,0.373923739
2.648,0.424242424,-0.131372549,0.372693727
2.656,0.412512219,-0.141176471,0.372693727
2.664,0.401759531,-0.131372549,0.372693727
2.672,0.393939394,-0.141176471,0.371463715
2.68,0.386119257,-0.12745098,0.371463715
2.688,0.37829912,-0.137254902,0.36900369
2.696,0.3714565,-0.117647059,0.367773678
2.704,0.363636364,-0.121568627,0.365313653
2.712,0.356793744,-0.101960784,0.364083641
2.72,0.349951124,-0.092156863,0.360393604
2.728,0.343108504,-0.060784314,0.357933579
2.736,0.337243402,-0.037254902,0.355473555
2.744,0.331378299,-0.001960784,0.35301353
2.752,0.326490714,0.033333333,0.351783518
2.76,0.321603128,0.068627451,0.350553506
2.768,0.316715543,0.098039216,0.349323493
2.776,0.312805474,0.129411765,0.348093481
2.784,0.309872923,0.158823529,0.348093481
2.792,0.305962854,0.168627451,0.348093481
2.8,0.303030303,0.178431373,0.348093481
2.808,0.299120235,0.154901961,0.348093481
2.816,0.295210166,0.139215686,0.348093481
2.824,0.291300098,0.11372549,0.349323493
2.832,0.287390029,0.109803922,0.349323493
2.84,0.284457478,0.078431373,0.350553506
2.848,0.281524927,0.074509804,0.350553506
2.856,0.279569892,0.058823529,0.350553506
2.864,0.276637341,0.052941176,0.349323493
2.872,0.275659824,0.043137255,0.349323493
2.88,0.274682307,0.049019608,0.348093481
2.888,0.275659824,0.043137255,0.348093481
2.896,0.275659824,0.052941176,0.346863469
2.904,0.275659824,0.043137255,0.345633456
2.912,0.275659824,0.058823529,0.345633456
2.92,0.276637341,0.062745098,0.344403444
2.928,0.277614858,0.052941176,0.344403444
2.936,0.279569892,0.062745098,0.343173432
2.944,0.283479961,0.049019608,0.343173432
2.952,0.289345064,0.058823529,0.341943419
2.96,0.298142717,0.043137255,0.340713407
2.968,0.311827957,0.029411765,0.339483395
2.976,0.331378299,0.023529412,0.338253383
2.984,0.355816227,0.033333333,0.33702337
2.992,0.382209189,0.023529412,0.335793358
3,0.409579668,0.033333333,0.333333333
3.008,0.444770283,0.023529412,0.330873309
3.016,0.483870968,0.017647059,0.329643296
3.024,0.522971652,-0.001960784,0.327183272
3.032,0.562072336,0.003921569,0.323493235
3.04,0.598240469,-0.005882353,0.32103321
3.048,0.630498534,-0.001960784,0.317343173
3.056,0.65884653,-0.015686275,0.313653137
3.064,0.68230694,-0.005882353,0.3099631
3.072,0.701857283,-0.021568627,0.30504305
3.08,0.716520039,-0.001960784,0.301353014
3.088,0.727272727,-0.011764706,0.297662977
3.096,0.73313783,-0.001960784,0.292742927
3.104,0.736070381,-0.001960784,0.287822878
3.112,0.737047898,0.058823529,0.284132841
3.12,0.736070381,0.188235294,0.279212792
3.128,0.73313783,0.335294118,0.274292743
3.136,0.728250244,0.384313725,0.269372694
3.144,0.721407625,-0.096078431,0.265682657
3.152,0.711632454,-0.456862745,0.26199262
3.16,0.700879765,-0.468627451,0.258302583
3.168,0.688172043,-0.211764706,0.257072571
3.176,0.673509286,-0.131372549,0.254612546
3.184,0.657869013,-0.121568627,0.253382534
3.192,0.641251222,-0.121568627,0.252152522
3.2,0.625610948,-0.117647059,0.250922509
3.208,0.609970674,-0.121568627,0.249692497
3.216,0.592375367,-0.111764706,0.249692497
3.224,0.575757576,-0.121568627,0.248462485
3.232,0.558162268,-0.117647059,0.248462485
3.24,0.541544477,-0.121568627,0.249692497
3.248,0.525904203,-0.105882353,0.248462485
3.256,0.51026393,-0.121568627,0.248462485
3.264,0.495601173,-0.111764706,0.247232472
3.272,0.481915934,-0.121568627,0.247232472
3.28,0.469208211,-0.111764706,0.247232472
3.288,0.457478006,-0.12745098,0.247232472
3.296,0.446725318,-0.121568627,0.247232472
3.304,0.437927664,-0.117647059,0.247232472
3.312,0.430107527,-0.121568627,0.247232472
3.32,0.42228739,-0.105882353,0.247232472
3.328,0.414467253,-0.08627451,0.24600246
3.336,0.406647116,-0.076470588,0.24600246
3.344,0.399804497,-0.047058824,0.244772448
3.352,0.39198436,-0.011764706,0.243542435
3.36,0.38514174,0.01372549,0.241082411
3.368,0.37829912,0.043137255,0.239852399
3.376,0.3714565,0.078431373,0.238622386
3.384,0.364613881,0.11372549,0.236162362
3.392,0.357771261,0.139215686,0.234932349
3.4,0.350928641,0.164705882,0.232472325
3.408,0.346041056,0.158823529,0.231242312
3.416,0.34115347,0.174509804,0.2300123
3.424,0.336265885,0.143137255,0.228782288
3.432,0.329423265,0.129411765,0.227552276
3.44,0.323558162,0.098039216,0.225092251
3.448,0.316715543,0.094117647,0.223862239
3.456,0.31085044,0.068627451,0.222632226
3.464,0.30400782,0.074509804,0.220172202
3.472,0.298142717,0.043137255,0.217712177
3.48,0.292277615,0.039215686,0.216482165
3.488,0.286412512,0.033333333,0.21402214
3.496,0.281524927,0.043137255,0.211562116
3.504,0.276637341,0.029411765,0.209102091
3.512,0.27370479,0.049019608,0.206642066
3.52,0.271749756,0.043137255,0.204182042
3.528,0.270772239,0.058823529,0.200492005
3.536,0.269794721,0.062745098,0.19803198
3.544,0.269794721,0.049019608,0.195571956
3.552,0.272727273,0.062745098,0.193111931
3.56,0.278592375,0.049019608,0.190651907
3.568,0.288367546,0.058823529,0.188191882
3.576,0.30400782,0.039215686,0.184501845
3.584,0.325513196,0.017647059,0.180811808
3.592,0.352883675,0.01372549,0.177121771
3.6,0.38514174,0.029411765,0.172201722
3.608,0.42228739,0.023529412,0.167281673
3.616,0.455522972,0.033333333,0.161131611
3.624,0.486803519,0.007843137,0.15498155
3.632,0.521994135,0.017647059,0.150061501
3.64,0.557184751,0.023529412,0.143911439
3.648,0.590420332,0.01372549,0.13899139
3.656,0.619745846,-0.015686275,0.134071341
3.664,0.64516129,0.01372549,0.129151292
3.672,0.66568915,-0.011764706,0.125461255
3.68,0.683284457,-0.001960784,0.120541205
3.688,0.69599218,0.003921569,0.116851169
3.696,0.705767351,-0.001960784,0.111931119
3.704,0.711632454,-0.011764706,0.108241082
3.712,0.714565005,-0.001960784,0.104551046
3.72,0.713587488,-0.001960784,0.100861009
3.728,0.710654936,0.033333333,0.095940959
3.736,0.706744868,0.139215686,0.092250923
3.744,0.700879765,0.274509804,0.088560886
3.752,0.693059629,0.339215686,0.083640836
3.76,0.684261975,0.058823529,0.082410824
3.768,0.672531769,-0.343137255,0.0799508
3.776,0.659824047,-0.482352941,0.0799508
3.784,0.646138807,-0.356862745,0.081180812
3.792,0.630498534,-0.192156863,0.082410824
3.8,0.61485826,-0.121568627,0.083640836
3.808,0.597262952,-0.117647059,0.086100861
3.816,0.580645161,-0.096078431,0.088560886
3.824,0.56402737,-0.101960784,0.09102091
3.832,0.549364614,-0.082352941,0.093480935
3.84,0.53372434,-0.111764706,0.095940959
3.848,0.518084066,-0.101960784,0.098400984
3.856,0.502443793,-0.111764706,0.100861009
3.864,0.486803519,-0.092156863,0.103321033
3.872,0.472140762,-0.096078431,0.105781058
3.88,0.458455523,-0.101960784,0.108241082
3.888,0.445747801,-0.121568627,0.110701107
3.896,0.434017595,-0.08627451,0.114391144
3.904,0.423264907,-0.121568627,0.116851169
3.912,0.412512219,-0.101960784,0.119311193
3.92,0.402737048,-0.111764706,0.12300123
3.928,0.394916911,-0.117647059,0.125461255
3.936,0.388074291,-0.096078431,0.129151292
3.944,0.381231672,-0.076470588,0.131611316
3.952,0.374389052,-0.07254902,0.134071341
3.96,0.366568915,-0.076470588,0.136531365
3.968,0.359726295,-0.011764706,0.13899139
3.976,0.352883675,0.039215686,0.140221402
3.984,0.346041056,0.062745098,0.142681427
3.992,0.339198436,0.088235294,0.146371464
4,0.332355816,0.133333333,0.148831488
4.008,0.326490714,0.143137255,0.152521525
4.016,0.319648094,0.178431373,0.156211562
4.024,0.313782991,0.209803922,0.159901599
4.032,0.308895406,0.184313725,0.163591636
4.04,0.30400782,0.154901961,0.167281673
4.048,0.299120235,0.133333333,0.17097171
4.056,0.294232649,0.119607843,0.174661747
4.064,0.288367546,0.139215686,0.178351784
4.072,0.283479961,0.074509804,0.180811808
4.08,0.278592375,0.084313725,0.184501845
4.088,0.272727273,0.058823529,0.188191882
4.096,0.267839687,0.068627451,0.193111931
4.104,0.263929619,0.039215686,0.196801968
4.112,0.259042033,0.033333333,0.201722017
4.12,0.256109482,0.068627451,0.207872079
4.128,0.252199413,0.033333333,0.21402214
4.136,0.250244379,0.052941176,0.220172202
4.144,0.249266862,0.043137255,0.225092251
4.152,0.250244379,0.039215686,0.231242312
4.16,0.250244379,0.084313725,0.237392374
4.168,0.251221896,0.068627451,0.243542435
4.176,0.254154448,0.052941176,0.248462485
4.184,0.258064516,0.088235294,0.254612546
4.192,0.265884653,0.068627451,0.259532595
4.2,0.276637341,0.074509804,0.265682657
4.208,0.292277615,0.068627451,0.270602706
4.216,0.312805474,0.084313725,0.276752768
4.224,0.339198436,0.043137255,0.282902829
4.232,0.370478983,0.068627451,0.289052891
4.24,0.405669599,0.033333333,0.29397294
4.248,0.437927664,0.039215686,0.300123001
4.256,0.468230694,0.023529412,0.30504305
4.264,0.501466276,0.043137255,0.311193112
4.272,0.535679374,0.039215686,0.316113161
4.28,0.566959922,0.049019608,0.32103321
4.288,0.595307918,0.023529412,0.327183272
4.296,0.620723363,0.033333333,0.332103321
4.304,0.641251222,0.01372549,0.33702337
4.312,0.656891496,0.043137255,0.341943419
4.32,0.669599218,0.033333333,0.346863469
4.328,0.678396872,0.039215686,0.351783518
4.336,0.684261975,0.023529412,0.355473555
4.344,0.686217009,0.017647059,0.359163592
4.352,0.685239492,0.029411765,0.362853629
4.36,0.681329423,0.058823529,0.367773678
4.368,0.676441838,0.123529412,0.371463715
4.376,0.669599218,0.264705882,0.375153752
4.384,0.660801564,0.394117647,0.378843788
4.392,0.649071359,0.2,0.383763838
4.4,0.636363636,-0.231372549,0.387453875
4.408,0.622678397,-0.423529412,0.392373924
4.416,0.607038123,-0.37254902,0.398523985
4.424,0.590420332,-0.17254902,0.403444034
4.432,0.572825024,-0.092156863,0.408364084
4.44,0.556207234,-0.096078431,0.413284133
4.448,0.538611926,-0.082352941,0.418204182
4.456,0.523949169,-0.076470588,0.423124231
4.464,0.51026393,-0.050980392,0.426814268
4.472,0.495601173,-0.076470588,0.430504305
4.48,0.479960899,-0.07254902,0.43296433
4.488,0.46627566,-0.07254902,0.435424354
4.496,0.45259042,-0.07254902,0.436654367
4.504,0.438905181,-0.08627451,0.439114391
4.512,0.427174976,-0.07254902,0.440344403
4.52,0.416422287,-0.076470588,0.441574416
4.528,0.405669599,-0.07254902,0.442804428
4.536,0.396871945,-0.092156863,0.44403444
4.544,0.388074291,-0.08627451,0.44403444
4.552,0.380254154,-0.08627451,0.445264453
4.56,0.374389052,-0.07254902,0.445264453
4.568,0.368523949,-0.066666667,0.445264453
4.576,0.363636364,-0.07254902,0.445264453
4.584,0.357771261,-0.047058824,0.445264453
4.592,0.351906158,-0.050980392,0.445264453
4.6,0.347018573,-0.005882353,0.44403444
4.608,0.342130987,0.029411765,0.442804428
4.616,0.336265885,0.058823529,0.441574416
4.624,0.331378299,0.094117647,0.441574416
4.632,0.326490714,0.123529412,0.440344403
4.64,0.321603128,0.149019608,0.439114391
4.648,0.316715543,0.184313725,0.439114391
4.656,0.311827957,0.184313725,0.437884379
4.664,0.307917889,0.188235294,0.437884379
4.672,0.304985337,0.168627451,0.437884379
4.68,0.302052786,0.164705882,0.437884379
4.688,0.298142717,0.139215686,0.439114391
4.696,0.293255132,0.129411765,0.439114391
4.704,0.289345064,0.098039216,0.440344403
4.712,0.284457478,0.094117647,0.441574416
4.72,0.28054741,0.068627451,0.442804428
4.728,0.276637341,0.074509804,0.44403444
4.736,0.272727273,0.058823529,0.445264453
4.744,0.269794721,0.062745098,0.446494465
4.752,0.26686217,0.052941176,0.44895449
4.76,0.264907136,0.062745098,0.450184502
4.768,0.263929619,0.052941176,0.452644526
4.776,0.263929619,0.062745098,0.455104551
4.784,0.263929619,0.068627451,0.457564576
4.792,0.264907136,0.068627451,0.4600246
4.8,0.265884653,0.078431373,0.462484625
4.808,0.26686217,0.068627451,0.464944649
4.816,0.269794721,0.084313725,0.466174662
4.824,0.27370479,0.068627451,0.467404674
4.832,0.28054741,0.078431373,0.467404674
4.84,0.289345064,0.052941176,0.467404674
4.848,0.30400782,0.058823529,0.467404674
4.856,0.322580645,0.039215686,0.467404674
4.864,0.347018573,0.043137255,0.466174662
4.872,0.372434018,0.033333333,0.466174662
4.88,0.398826979,0.029411765,0.463714637
4.888,0.432062561,0.01372549,0.462484625
4.896,0.468230694,0.023529412,0.458794588
4.904,0.504398827,-0.001960784,0.456334563
4.912,0.54056696,0.003921569,0.452644526
4.92,0.573802542,-0.011764706,0.44895449
4.928,0.603128055,-0.001960784,0.445264453
4.936,0.629521017,-0.011764706,0.442804428
4.944,0.651026393,-0.001960784,0.437884379
4.952,0.668621701,-0.005882353,0.434194342
4.96,0.68230694,-0.001960784,0.42804428
4.968,0.691104594,0.003921569,0.423124231
4.976,0.696969697,-0.001960784,0.418204182
4.984,0.697947214,0.007843137,0.413284133
4.992,0.697947214,0.049019608,0.408364084
5,0.69599218,0.158823529,0.402214022
5.008,0.691104594,0.3,0.397293973
5.016,0.684261975,0.403921569,0.393603936
5.024,0.675464321,0.109803922,0.388683887
5.032,0.664711632,-0.356862745,0.38499385
5.04,0.65200391,-0.452941176,0.382533825
5.048,0.637341153,-0.262745098,0.378843788
5.056,0.62170088,-0.147058824,0.377613776
5.064,0.604105572,-0.105882353,0.375153752
5.072,0.586510264,-0.121568627,0.373923739
5.08,0.57086999,-0.105882353,0.371463715
5.088,0.555229717,-0.117647059,0.370233702
5.096,0.538611926,-0.101960784,0.367773678
5.104,0.521994135,-0.111764706,0.365313653
5.112,0.505376344,-0.101960784,0.364083641
5.12,0.48973607,-0.111764706,0.362853629
5.128,0.475073314,-0.096078431,0.361623616
5.136,0.460410557,-0.111764706,0.360393604
5.144,0.447702835,-0.101960784,0.359163592
5.152,0.43597263,-0.111764706,0.357933579
5.16,0.424242424,-0.105882353,0.356703567
5.168,0.413489736,-0.111764706,0.355473555
5.176,0.403714565,-0.101960784,0.354243542
5.184,0.394916911,-0.105882353,0.351783518
5.192,0.388074291,-0.096078431,0.350553506
5.2,0.381231672,-0.08627451,0.348093481
5.208,0.375366569,-0.092156863,0.346863469
5.216,0.368523949,-0.060784314,0.344403444
5.224,0.362658847,-0.047058824,0.341943419
5.232,0.356793744,-0.015686275,0.339483395
5.24,0.350928641,0.01372549,0.338253383
5.248,0.345063539,0.058823529,0.335793358
5.256,0.340175953,0.084313725,0.333333333
5.264,0.33431085,0.123529412,0.330873309
5.272,0.329423265,0.149019608,0.329643296
5.28,0.324535679,0.178431373,0.327183272
5.288,0.319648094,0.178431373,0.32595326
5.296,0.315738025,0.184313725,0.324723247
5.304,0.311827957,0.164705882,0.323493235
5.312,0.307917889,0.158823529,0.322263223
5.32,0.30400782,0.123529412,0.322263223
5.328,0.300097752,0.119607843,0.32103321
5.336,0.296187683,0.088235294,0.319803198
5.344,0.292277615,0.084313725,0.319803198
5.352,0.288367546,0.058823529,0.318573186
5.36,0.284457478,0.052941176,0.318573186
5.368,0.281524927,0.043137255,0.317343173
5.376,0.278592375,0.049019608,0.317343173
5.384,0.276637341,0.052941176,0.316113161
5.392,0.275659824,0.043137255,0.316113161
5.4,0.275659824,0.058823529,0.314883149
5.408,0.276637341,0.062745098,0.314883149
5.416,0.277614858,0.068627451,0.313653137
5.424,0.278592375,0.058823529,0.313653137
5.432,0.28054741,0.068627451,0.312423124
5.44,0.285434995,0.062745098,0.311193112
5.448,0.292277615,0.068627451,0.3099631
5.456,0.302052786,0.043137255,0.308733087
5.464,0.31769306,0.049019608,0.307503075
5.472,0.340175953,0.029411765,0.306273063
5.48,0.367546432,0.043137255,0.30504305
5.488,0.400782014,0.039215686,0.303813038
5.496,0.438905181,0.043137255,0.301353014
5.504,0.47311828,0.029411765,0.298892989
5.512,0.506353861,0.033333333,0.296432964
5.52,0.542521994,0.01372549,0.292742927
5.528,0.579667644,0.017647059,0.290282903
5.536,0.613880743,0.003921569,0.286592866
5.544,0.64516129,0.01372549,0.282902829
5.552,0.672531769,-0.001960784,0.279212792
5.56,0.695014663,0.003921569,0.275522755
5.568,0.713587488,-0.005882353,0.271832718
5.576,0.727272727,-0.001960784,0.269372694
5.584,0.738025415,0.003921569,0.264452645
5.592,0.744868035,-0.001960784,0.260762608
5.6,0.748778104,0.01372549,0.255842558
5.608,0.748778104,0.074509804,0.250922509
5.616,0.745845552,0.2,0.24600246
5.624,0.741935484,0.345098039,0.241082411
5.632,0.736070381,0.403921569,0.234932349
5.64,0.728250244,-0.08627451,0.2300123
5.648,0.718475073,-0.447058824,0.226322263
5.656,0.706744868,-0.456862745,0.221402214
5.664,0.694037146,-0.201960784,0.217712177
5.672,0.679374389,-0.131372549,0.21402214
5.68,0.662756598,-0.105882353,0.211562116
5.688,0.646138807,-0.117647059,0.209102091
5.696,0.629521017,-0.096078431,0.206642066
5.704,0.611925709,-0.096078431,0.205412054
5.712,0.595307918,-0.096078431,0.204182042
5.72,0.579667644,-0.105882353,0.204182042
5.728,0.56402737,-0.096078431,0.20295203
5.736,0.54740958,-0.101960784,0.201722017
5.744,0.531769306,-0.105882353,0.200492005
5.752,0.516129032,-0.096078431,0.199261993
5.76,0.502443793,-0.105882353,0.19803198
5.768,0.488758553,-0.121568627,0.196801968
5.776,0.476050831,-0.121568627,0.194341943
5.784,0.464320626,-0.117647059,0.193111931
5.792,0.453567937,-0.12745098,0.190651907
5.8,0.442815249,-0.111764706,0.189421894
5.808,0.434017595,-0.117647059,0.185731857
5.816,0.426197458,-0.096078431,0.183271833
5.824,0.419354839,-0.08627451,0.180811808
5.832,0.412512219,-0.07254902,0.177121771
5.84,0.404692082,-0.056862745,0.173431734
5.848,0.397849462,-0.015686275,0.168511685
5.856,0.391006843,0.01372549,0.163591636
5.864,0.384164223,0.043137255,0.158671587
5.872,0.377321603,0.074509804,0.153751538
5.88,0.370478983,0.11372549,0.150061501
5.888,0.363636364,0.133333333,0.145141451
5.896,0.357771261,0.164705882,0.141451415
5.904,0.350928641,0.158823529,0.13899139
5.912,0.344086022,0.164705882,0.135301353
5.92,0.338220919,0.133333333,0.132841328
5.928,0.333333333,0.123529412,0.130381304
5.936,0.327468231,0.094117647,0.126691267
5.944,0.320625611,0.094117647,0.124231242
5.952,0.313782991,0.062745098,0.121771218
5.96,0.307917889,0.052941176,0.118081181
5.968,0.301075269,0.033333333,0.115621156
5.976,0.295210166,0.029411765,0.113161132
5.984,0.289345064,0.039215686,0.110701107
5.992,0.283479961,0.029411765,0.109471095
6,0.278592375,0.023529412,0.10701107
6.008,0.27370479,0.043137255,0.104551046
6.016,0.269794721,0.058823529,0.102091021
6.024,0.267839687,0.043137255,0.099630996
6.032,0.26686217,0.058823529,0.097170972
6.04,0.26686217,0.058823529,0.095940959
6.048,0.269794721,0.052941176,0.094710947
6.056,0.274682307,0.043137255,0.093480935
6.064,0.284457478,0.062745098,0.092250923
6.072,0.299120235,0.058823529,0.09102091
6.08,0.319648094,0.049019608,0.089790898
6.088,0.346041056,0.033333333,0.087330873
6.096,0.37829912,0.023529412,0.084870849
6.104,0.413489736,0.023529412,0.083640836
6.112,0.45259042,0.023529412,0.081180812
6.12,0.491691105,0.017647059,0.078720787
6.128,0.524926686,0.017647059,0.077490775
6.136,0.554252199,0.017647059,0.07503075
6.144,0.58455523,0.023529412,0.073800738
6.152,0.613880743,-0.001960784,0.072570726
6.16,0.639296188,0.003921569,0.071340713
6.168,0.661779081,-0.02745098,0.070110701
6.176,0.679374389,0.003921569,0.068880689
6.184,0.694037146,-0.015686275,0.067650677
6.192,0.704789834,-0.021568627,0.066420664
6.2,0.711632454,0.007843137,0.065190652
6.208,0.715542522,-0.005882353,0.062730627
6.216,0.717497556,-0.015686275,0.061500615
6.224,0.715542522,-0.021568627,0.060270603
6.232,0.712609971,0.078431373,0.060270603
6.24,0.706744868,0.2,0.060270603
6.248,0.698924731,0.335294118,0.060270603
6.256,0.68914956,0.339215686,0.061500615
6.264,0.678396872,-0.196078431,0.062730627
6.272,0.66568915,-0.478431373,0.065190652
6.28,0.651026393,-0.482352941,0.067650677
6.288,0.636363636,-0.247058824,0.071340713
6.296,0.619745846,-0.141176471,0.073800738
6.304,0.602150538,-0.12745098,0.077490775
6.312,0.58455523,-0.101960784,0.0799508
6.32,0.566959922,-0.111764706,0.083640836
6.328,0.549364614,-0.092156863,0.086100861
6.336,0.532746823,-0.121568627,0.089790898
6.344,0.518084066,-0.096078431,0.093480935
6.352,0.504398827,-0.105882353,0.097170972
6.36,0.48973607,-0.105882353,0.100861009
6.368,0.476050831,-0.096078431,0.105781058
6.376,0.462365591,-0.105882353,0.109471095
6.384,0.449657869,-0.096078431,0.114391144
6.392,0.437927664,-0.105882353,0.119311193
6.4,0.427174976,-0.111764706,0.124231242
6.408,0.416422287,-0.105882353,0.129151292
6.416,0.406647116,-0.121568627,0.134071341
6.424,0.397849462,-0.092156863,0.13899139
6.432,0.390029326,-0.08627451,0.142681427
6.44,0.382209189,-0.096078431,0.147601476
6.448,0.375366569,-0.092156863,0.151291513
6.456,0.370478983,-0.060784314,0.156211562
6.464,0.363636364,-0.015686275,0.158671587
6.472,0.357771261,0.01372549,0.162361624
6.48,0.350928641,0.033333333,0.164821648
6.488,0.345063539,0.068627451,0.168511685
6.496,0.339198436,0.109803922,0.172201722
6.504,0.332355816,0.129411765,0.175891759
6.512,0.326490714,0.184313725,0.179581796
6.52,0.320625611,0.174509804,0.183271833
6.528,0.313782991,0.188235294,0.188191882
6.536,0.307917889,0.158823529,0.191881919
6.544,0.302052786,0.168627451,0.196801968
6.552,0.298142717,0.133333333,0.201722017
6.56,0.294232649,0.119607843,0.206642066
6.568,0.289345064,0.088235294,0.212792128
6.576,0.284457478,0.078431373,0.217712177
6.584,0.279569892,0.068627451,0.222632226
6.592,0.27370479,0.062745098,0.228782288
6.6,0.268817204,0.049019608,0.233702337
6.608,0.264907136,0.058823529,0.238622386
6.616,0.26001955,0.068627451,0.244772448
6.624,0.257086999,0.052941176,0.250922509
6.632,0.254154448,0.068627451,0.257072571
6.64,0.252199413,0.062745098,0.263222632
6.648,0.250244379,0.074509804,0.270602706
6.656,0.250244379,0.058823529,0.27798278
6.664,0.252199413,0.074509804,0.285362854
6.672,0.253176931,0.068627451,0.292742927
6.68,0.256109482,0.088235294,0.300123001
6.688,0.260997067,0.084313725,0.307503075
6.696,0.268817204,0.094117647,0.314883149
6.704,0.28054741,0.078431373,0.319803198
6.712,0.2971652,0.088235294,0.32595326
6.72,0.319648094,0.068627451,0.330873309
6.728,0.347018573,0.074509804,0.334563346
6.736,0.37829912,0.052941176,0.338253383
6.744,0.413489736,0.068627451,0.340713407
6.752,0.450635386,0.058823529,0.343173432
6.76,0.482893451,0.062745098,0.345633456
6.768,0.512218964,0.052941176,0.345633456
6.776,0.543499511,0.049019608,0.346863469
6.784,0.572825024,0.033333333,0.346863469
6.792,0.600195503,0.043137255,0.346863469
6.8,0.623655914,0.039215686,0.345633456
6.808,0.643206256,0.043137255,0.345633456
6.816,0.65884653,0.033333333,0.343173432
6.824,0.670576735,0.029411765,0.340713407
6.832,0.678396872,0.033333333,0.338253383
6.84,0.683284457,0.023529412,0.335793358
6.848,0.685239492,0.029411765,0.332103321
6.856,0.684261975,0.017647059,0.328413284
6.864,0.681329423,0.062745098,0.32595326
6.872,0.675464321,0.168627451,0.322263223
6.88,0.668621701,0.309803922,0.319803198
6.888,0.65884653,0.394117647,0.316113161
6.896,0.648093842,0.098039216,0.314883149
6.904,0.635386119,-0.343137255,0.312423124
6.912,0.620723363,-0.42745098,0.311193112
6.92,0.605083089,-0.282352941,0.311193112
6.928,0.588465298,-0.137254902,0.3099631
6.936,0.57086999,-0.117647059,0.308733087
6.944,0.554252199,-0.105882353,0.308733087
6.952,0.536656891,-0.117647059,0.307503075
6.96,0.519061584,-0.111764706,0.307503075
6.968,0.504398827,-0.121568627,0.307503075
6.976,0.490713587,-0.111764706,0.307503075
6.984,0.477028348,-0.121568627,0.308733087
6.992,0.463343109,-0.117647059,0.308733087
7,0.449657869,-0.12745098,0.3099631
7.008,0.436950147,-0.121568627,0.311193112
7.016,0.424242424,-0.131372549,0.312423124
7.024,0.412512219,-0.137254902,0.313653137
7.032,0.400782014,-0.12745098,0.313653137
7.04,0.391006843,-0.137254902,0.314883149
7.048,0.381231672,-0.121568627,0.314883149
7.056,0.372434018,-0.131372549,0.314883149
7.064,0.363636364,-0.121568627,0.314883149
7.072,0.356793744,-0.117647059,0.313653137
7.08,0.351906158,-0.096078431,0.313653137
7.088,0.345063539,-0.101960784,0.312423124
7.096,0.338220919,-0.060784314,0.312423124
7.104,0.332355816,-0.047058824,0.311193112
7.112,0.326490714,-0.001960784,0.311193112
7.12,0.320625611,0.017647059,0.3099631
7.128,0.314760508,0.062745098,0.308733087
7.136,0.309872923,0.084313725,0.307503075
7.144,0.304985337,0.129411765,0.306273063
7.152,0.300097752,0.139215686,0.30504305
7.16,0.295210166,0.164705882,0.30504305
7.168,0.290322581,0.154901961,0.30504305
7.176,0.285434995,0.158823529,0.30504305
7.184,0.282502444,0.133333333,0.30504305
7.192,0.28054741,0.119607843,0.30504305
7.2,0.277614858,0.094117647,0.306273063
7.208,0.274682307,0.094117647,0.307503075
7.216,0.271749756,0.074509804,0.307503075
7.224,0.269794721,0.068627451,0.308733087
7.232,0.26686217,0.058823529,0.308733087
7.24,0.265884653,0.043137255,0.308733087
7.248,0.264907136,0.049019608,0.3099631
7.256,0.264907136,0.043137255,0.3099631
7.264,0.264907136,0.049019608,0.3099631
7.272,0.264907136,0.043137255,0.3099631
7.28,0.265884653,0.062745098,0.3099631
7.288,0.267839687,0.058823529,0.3099631
7.296,0.269794721,0.068627451,0.3099631
7.304,0.272727273,0.058823529,0.3099631
7.312,0.275659824,0.068627451,0.3099631
7.32,0.28054741,0.062745098,0.3099631
7.328,0.288367546,0.062745098,0.3099631
7.336,0.299120235,0.043137255,0.308733087
7.344,0.314760508,0.043137255,0.308733087
7.352,0.336265885,0.023529412,0.307503075
7.36,0.363636364,0.029411765,0.306273063
7.368,0.395894428,0.023529412,0.30504305
7.376,0.433040078,0.017647059,0.302583026
7.384,0.472140762,0.003921569,0.300123001
7.392,0.507331378,0.007843137,0.297662977
7.4,0.538611926,-0.011764706,0.295202952
7.408,0.572825024,-0.015686275,0.292742927
7.416,0.605083089,-0.001960784,0.289052891
7.424,0.634408602,-0.015686275,0.286592866
7.432,0.659824047,-0.001960784,0.284132841
7.44,0.681329423,-0.011764706,0.280442804
7.448,0.698924731,-0.001960784,0.27798278
7.456,0.711632454,-0.011764706,0.273062731
7.464,0.721407625,-0.001960784,0.269372694
7.472,0.727272727,-0.015686275,0.265682657
7.48,0.731182796,0.01372549,0.26199262
7.488,0.731182796,0.074509804,0.257072571
7.496,0.728250244,0.219607843,0.253382534
7.504,0.723362659,0.349019608,0.248462485
7.512,0.716520039,0.390196078,0.244772448
7.52,0.707722385,-0.162745098,0.241082411
7.528,0.697947214,-0.456862745,0.238622386
7.536,0.685239492,-0.378431373,0.234932349
7.544,0.671554252,-0.182352941,0.232472325
7.552,0.655913978,-0.12745098,0.2300123
7.56,0.639296188,-0.111764706,0.228782288
7.568,0.62170088,-0.121568627,0.227552276
7.576,0.604105572,-0.111764706,0.226322263
7.584,0.585532747,-0.121568627,0.225092251
7.592,0.566959922,-0.105882353,0.225092251
7.6,0.551319648,-0.111764706,0.223862239
7.608,0.535679374,-0.101960784,0.223862239
7.616,0.520039101,-0.111764706,0.222632226
7.624,0.505376344,-0.117647059,0.221402214
7.632,0.48973607,-0.101960784,0.220172202
7.64,0.476050831,-0.117647059,0.217712177
7.648,0.462365591,-0.101960784,0.216482165
7.656,0.450635386,-0.121568627,0.215252153
7.664,0.438905181,-0.111764706,0.215252153
7.672,0.428152493,-0.121568627,0.21402214
7.68,0.417399804,-0.105882353,0.215252153
7.688,0.408602151,-0.111764706,0.215252153
7.696,0.399804497,-0.08627451,0.215252153
7.704,0.392961877,-0.082352941,0.21402214
7.712,0.386119257,-0.050980392,0.211562116
7.72,0.380254154,-0.041176471,0.209102091
7.728,0.372434018,-0.001960784,0.206642066
7.736,0.365591398,0.017647059,0.205412054
7.744,0.358748778,0.062745098,0.204182042
7.752,0.351906158,0.084313725,0.201722017
7.76,0.345063539,0.123529412,0.200492005
7.768,0.338220919,0.143137255,0.199261993
7.776,0.332355816,0.168627451,0.196801968
7.784,0.325513196,0.174509804,0.195571956
7.792,0.318670577,0.164705882,0.193111931
7.8,0.312805474,0.149019608,0.191881919
7.808,0.308895406,0.139215686,0.189421894
7.816,0.304985337,0.109803922,0.18696187
7.824,0.300097752,0.094117647,0.18696187
7.832,0.295210166,0.074509804,0.185731857
7.84,0.290322581,0.068627451,0.185731857
7.848,0.285434995,0.062745098,0.184501845
7.856,0.281524927,0.052941176,0.184501845
7.864,0.277614858,0.058823529,0.184501845
7.872,0.27370479,0.043137255,0.184501845
7.88,0.271749756,0.062745098,0.184501845
7.888,0.269794721,0.043137255,0.184501845
7.896,0.267839687,0.052941176,0.183271833
7.904,0.267839687,0.049019608,0.18204182
7.912,0.268817204,0.068627451,0.18204182
7.92,0.270772239,0.058823529,0.180811808
7.928,0.27370479,0.068627451,0.180811808
7.936,0.277614858,0.058823529,0.180811808
7.944,0.285434995,0.062745098,0.18204182
7.952,0.2971652,0.033333333,0.180811808
7.96,0.313782991,0.029411765,0.180811808
7.968,0.336265885,0.023529412,0.180811808
7.976,0.364613881,0.039215686,0.179581796
7.984,0.397849462,0.023529412,0.178351784
7.992,0.43597263,0.023529412,0.175891759
8,0.476050831,0.01372549,0.173431734
8.008,0.515151515,0.01372549,0.172201722
8.016,0.549364614,-0.011764706,0.168511685
8.024,0.578690127,-0.001960784,0.166051661
8.032,0.60801564,0.007843137,0.162361624
8.04,0.636363636,-0.001960784,0.159901599
8.048,0.660801564,-0.005882353,0.15498155
8.056,0.680351906,-0.011764706,0.151291513
8.064,0.696969697,-0.001960784,0.145141451
8.072,0.709677419,-0.011764706,0.140221402
8.08,0.718475073,0.003921569,0.134071341
8.088,0.723362659,-0.015686275,0.127921279
8.096,0.72629521,0.007843137,0.121771218
8.104,0.725317693,0.052941176,0.115621156
8.112,0.722385142,0.178431373,0.109471095
8.12,0.716520039,0.294117647,0.103321033
8.128,0.709677419,0.354901961,0.097170972
8.136,0.700879765,-0.056862745,0.09102091
8.144,0.68914956,-0.417647059,0.086100861
8.152,0.676441838,-0.47254902,0.082410824
8.16,0.660801564,-0.262745098,0.078720787
8.168,0.644183773,-0.150980392,0.07503075
8.176,0.626588465,-0.117647059,0.072570726
8.184,0.60801564,-0.121568627,0.071340713
8.192,0.588465298,-0.111764706,0.071340713
8.2,0.567937439,-0.12745098,0.070110701
8.208,0.548387097,-0.101960784,0.070110701
8.216,0.528836755,-0.12745098,0.070110701
8.224,0.512218964,-0.117647059,0.070110701
8.232,0.49657869,-0.111764706,0.068880689
8.24,0.479960899,-0.101960784,0.068880689
8.248,0.463343109,-0.121568627,0.070110701
8.256,0.447702835,-0.105882353,0.070110701
8.264,0.433040078,-0.121568627,0.070110701
8.272,0.418377322,-0.121568627,0.071340713
8.28,0.405669599,-0.105882353,0.072570726
8.288,0.392961877,-0.117647059,0.072570726
8.296,0.381231672,-0.105882353,0.073800738
8.304,0.370478983,-0.111764706,0.07503075
8.312,0.360703812,-0.08627451,0.07503075
8.32,0.350928641,-0.08627451,0.076260763
8.328,0.343108504,-0.07254902,0.076260763
8.336,0.336265885,-0.056862745,0.076260763
8.344,0.330400782,-0.011764706,0.076260763
8.352,0.324535679,0.01372549,0.076260763
8.36,0.318670577,0.058823529,0.076260763
8.368,0.312805474,0.068627451,0.076260763
8.376,0.306940371,0.119607843,0.077490775
8.384,0.302052786,0.139215686,0.077490775
8.392,0.296187683,0.174509804,0.078720787
8.4,0.292277615,0.178431373,0.0799508
8.408,0.287390029,0.158823529,0.082410824
8.416,0.283479961,0.133333333,0.084870849
8.424,0.279569892,0.11372549,0.088560886
8.432,0.276637341,0.098039216,0.092250923
8.44,0.274682307,0.084313725,0.095940959
8.448,0.27370479,0.052941176,0.099630996
8.456,0.272727273,0.058823529,0.104551046
8.464,0.271749756,0.049019608,0.108241082
8.472,0.270772239,0.023529412,0.113161132
8.48,0.270772239,0.007843137,0.118081181
8.488,0.270772239,0.023529412,0.12300123
8.496,0.270772239,0.029411765,0.127921279
8.504,0.271749756,0.007843137,0.132841328
8.512,0.27370479,0.029411765,0.137761378
8.52,0.275659824,0.023529412,0.142681427
8.528,0.277614858,0.039215686,0.146371464
8.536,0.28054741,0.023529412,0.151291513
8.544,0.283479961,0.049019608,0.15498155
8.552,0.287390029,0.043137255,0.158671587
8.56,0.292277615,0.052941176,0.162361624
8.568,0.298142717,0.039215686,0.167281673
8.576,0.306940371,0.049019608,0.17097171
8.584,0.319648094,0.033333333,0.175891759
8.592,0.337243402,0.023529412,0.179581796
8.6,0.360703812,0.007843137,0.184501845
8.608,0.388074291,0.01372549,0.189421894
8.616,0.421309873,0.003921569,0.193111931
8.624,0.457478006,0.007843137,0.196801968
8.632,0.495601173,0.003921569,0.200492005
8.64,0.534701857,0.01372549,0.20295203
8.648,0.565982405,0.023529412,0.205412054
8.656,0.593352884,-0.021568627,0.207872079
8.664,0.620723363,-0.001960784,0.210332103
8.672,0.646138807,-0.005882353,0.212792128
8.68,0.667644184,-0.001960784,0.215252153
8.688,0.685239492,0.01372549,0.218942189
8.696,0.699902248,-0.011764706,0.221402214
8.704,0.709677419,-0.021568627,0.225092251
8.712,0.716520039,0.003921569,0.228782288
8.72,0.71945259,-0.005882353,0.232472325
8.728,0.71945259,0.017647059,0.236162362
8.736,0.716520039,0.052941176,0.239852399
8.744,0.710654936,0.164705882,0.244772448
8.752,0.7028348,0.274509804,0.249692497
8.76,0.693059629,0.329411765,0.254612546
8.768,0.681329423,-0.021568627,0.259532595
8.776,0.667644184,-0.366666667,0.264452645
8.784,0.65200391,-0.452941176,0.270602706
8.792,0.634408602,-0.298039216,0.27798278
8.8,0.617790811,-0.166666667,0.284132841
8.808,0.600195503,-0.111764706,0.291512915
8.816,0.580645161,-0.101960784,0.300123001
8.824,0.560117302,-0.096078431,0.307503075
8.832,0.539589443,-0.096078431,0.314883149
8.84,0.518084066,-0.082352941,0.323493235
8.848,0.498533724,-0.092156863,0.330873309
8.856,0.480938416,-0.096078431,0.338253383
8.864,0.465298143,-0.096078431,0.344403444
8.872,0.448680352,-0.096078431,0.351783518
8.88,0.433040078,-0.08627451,0.357933579
8.888,0.417399804,-0.096078431,0.365313653
8.896,0.402737048,-0.076470588,0.371463715
8.904,0.389051808,-0.105882353,0.378843788
8.912,0.376344086,-0.096078431,0.386223862
8.92,0.364613881,-0.096078431,0.393603936
8.928,0.35483871,-0.092156863,0.40098401
8.936,0.345063539,-0.08627451,0.408364084
8.944,0.337243402,-0.066666667,0.414514145
8.952,0.329423265,-0.060784314,0.420664207
8.96,0.323558162,-0.041176471,0.426814268
8.968,0.318670577,-0.02745098,0.431734317
8.976,0.313782991,0.017647059,0.436654367
8.984,0.308895406,0.039215686,0.442804428
8.992,0.30400782,0.084313725,0.447724477
9,0.299120235,0.103921569,0.452644526
9.008,0.294232649,0.149019608,0.457564576
9.016,0.290322581,0.174509804,0.462484625
9.024,0.286412512,0.209803922,0.466174662
9.032,0.282502444,0.21372549,0.471094711
9.04,0.279569892,0.209803922,0.474784748
9.048,0.276637341,0.188235294,0.479704797
9.056,0.27370479,0.174509804,0.482164822
9.064,0.271749756,0.139215686,0.485854859
9.072,0.271749756,0.129411765,0.488314883
9.08,0.270772239,0.11372549,0.490774908
9.088,0.269794721,0.098039216,0.493234932
9.096,0.269794721,0.088235294,0.494464945
9.104,0.268817204,0.068627451,0.496924969
9.112,0.268817204,0.078431373,0.498154982
9.12,0.268817204,0.062745098,0.500615006
9.128,0.268817204,0.068627451,0.501845018
9.136,0.268817204,0.058823529,0.504305043
9.144,0.268817204,0.068627451,0.506765068
9.152,0.269794721,0.058823529,0.509225092
9.16,0.270772239,0.068627451,0.512915129
9.168,0.272727273,0.068627451,0.515375154
9.176,0.275659824,0.078431373,0.519065191
9.184,0.277614858,0.068627451,0.521525215
9.192,0.28054741,0.074509804,0.525215252
9.2,0.284457478,0.068627451,0.527675277
9.208,0.288367546,0.078431373,0.531365314
9.216,0.295210166,0.058823529,0.533825338
9.224,0.304985337,0.052941176,0.536285363
9.232,0.31769306,0.039215686,0.538745387
9.24,0.33431085,0.049019608,0.5399754
9.248,0.356793744,0.043137255,0.541205412
9.256,0.384164223,0.039215686,0.543665437
9.264,0.41544477,0.043137255,0.543665437
9.272,0.444770283,0.029411765,0.544895449
9.28,0.47311828,0.033333333,0.544895449
9.288,0.506353861,0.007843137,0.546125461
9.296,0.539589443,0.01372549,0.546125461
9.304,0.571847507,0.003921569,0.546125461
9.312,0.601173021,0.01372549,0.546125461
9.32,0.626588465,-0.001960784,0.546125461
9.328,0.648093842,0.007843137,0.546125461
9.336,0.66568915,-0.005882353,0.544895449
9.344,0.679374389,-0.001960784,0.544895449
9.352,0.688172043,-0.011764706,0.544895449
9.36,0.694037146,0.01372549,0.543665437
9.368,0.696969697,0.043137255,0.542435424
9.376,0.695014663,0.174509804,0.541205412
9.384,0.692082111,0.3,0.538745387
9.392,0.685239492,0.384313725,0.537515375
9.4,0.676441838,0.039215686,0.536285363
9.408,0.66568915,-0.378431373,0.535055351
9.416,0.65200391,-0.452941176,0.533825338
9.424,0.636363636,-0.252941176,0.533825338
9.432,0.619745846,-0.147058824,0.532595326
9.44,0.602150538,-0.117647059,0.531365314
9.448,0.582600196,-0.12745098,0.530135301
9.456,0.56402737,-0.121568627,0.528905289
9.464,0.544477028,-0.12745098,0.527675277
9.472,0.525904203,-0.121568627,0.525215252
9.48,0.507331378,-0.117647059,0.52398524
9.488,0.491691105,-0.12745098,0.52398524
9.496,0.478005865,-0.117647059,0.522755228
9.504,0.463343109,-0.12745098,0.52398524
9.512,0.448680352,-0.121568627,0.52398524
9.52,0.434995112,-0.12745098,0.525215252
9.528,0.421309873,-0.121568627,0.527675277
9.536,0.409579668,-0.131372549,0.528905289
9.544,0.397849462,-0.121568627,0.531365314
9.552,0.388074291,-0.121568627,0.531365314
9.56,0.37829912,-0.117647059,0.531365314
9.568,0.369501466,-0.121568627,0.530135301
9.576,0.360703812,-0.096078431,0.530135301
9.584,0.352883675,-0.092156863,0.527675277
9.592,0.347018573,-0.066666667,0.526445264
9.6,0.34115347,-0.056862745,0.525215252
9.608,0.336265885,-0.015686275,0.522755228
9.616,0.330400782,0.01372549,0.521525215
9.624,0.324535679,0.052941176,0.519065191
9.632,0.319648094,0.084313725,0.517835178
9.64,0.313782991,0.123529412,0.516605166
9.648,0.308895406,0.149019608,0.515375154
9.656,0.30400782,0.178431373,0.515375154
9.664,0.299120235,0.184313725,0.515375154
9.672,0.295210166,0.174509804,0.515375154
9.68,0.291300098,0.178431373,0.515375154
9.688,0.288367546,0.149019608,0.515375154
9.696,0.285434995,0.129411765,0.516605166
9.704,0.283479961,0.109803922,0.516605166
9.712,0.281524927,0.088235294,0.516605166
9.72,0.279569892,0.068627451,0.517835178
9.728,0.278592375,0.062745098,0.517835178
9.736,0.276637341,0.043137255,0.517835178
9.744,0.275659824,0.049019608,0.516605166
9.752,0.274682307,0.033333333,0.515375154
9.76,0.274682307,0.049019608,0.512915129
9.768,0.274682307,0.043137255,0.510455105
9.776,0.274682307,0.062745098,0.50799508
9.784,0.275659824,0.058823529,0.505535055
9.792,0.276637341,0.078431373,0.503075031
9.8,0.278592375,0.062745098,0.500615006
9.808,0.281524927,0.074509804,0.499384994
9.816,0.284457478,0.068627451,0.496924969
9.824,0.288367546,0.068627451,0.494464945
9.832,0.295210166,0.052941176,0.493234932
9.84,0.304985337,0.049019608,0.489544895
9.848,0.320625611,0.033333333,0.487084871
9.856,0.34115347,0.039215686,0.484624846
9.864,0.368523949,0.023529412,0.480934809
9.872,0.401759531,0.023529412,0.47601476
9.88,0.439882698,0.029411765,0.472324723
9.888,0.480938416,0.023529412,0.466174662
9.896,0.522971652,0.029411765,0.461254613
9.904,0.559139785,0.007843137,0.455104551
9.912,0.590420332,0.01372549,0.44895449
9.92,0.622678397,-0.001960784,0.442804428
9.928,0.653958944,0.01372549,0.436654367
9.936,0.681329423,0.003921569,0.429274293
9.944,0.704789834,0.01372549,0.421894219
9.952,0.723362659,-0.001960784,0.413284133
9.96,0.738025415,0.003921569,0.405904059
9.968,0.748778104,-0.001960784,0.397293973
9.976,0.755620723,0.017647059,0.388683887
9.984,0.759530792,0.039215686,0.380073801
9.992,0.759530792,0.154901961,0.371463715
10,0.75659824,0.278431373,0.364083641
10.008,0.751710655,0.4,0.356703567
10.016,0.743890518,0.119607843,0.349323493
10.024,0.735092864,-0.347058824,0.343173432
10.032,0.723362659,-0.443137255,0.338253383
10.04,0.709677419,-0.262745098,0.332103321
10.048,0.695014663,-0.141176471,0.327183272
10.056,0.678396872,-0.111764706,0.323493235
10.064,0.660801564,-0.105882353,0.318573186
10.072,0.641251222,-0.096078431,0.314883149
10.08,0.62170088,-0.101960784,0.312423124
10.088,0.602150538,-0.096078431,0.3099631
10.096,0.581622678,-0.105882353,0.307503075
10.104,0.563049853,-0.101960784,0.30504305
10.112,0.545454545,-0.096078431,0.302583026
10.12,0.530791789,-0.105882353,0.301353014
10.128,0.514173998,-0.101960784,0.298892989
10.136,0.498533724,-0.121568627,0.297662977
10.144,0.483870968,-0.117647059,0.295202952
10.152,0.469208211,-0.12745098,0.292742927
10.16,0.455522972,-0.121568627,0.290282903
10.168,0.442815249,-0.141176471,0.287822878
10.176,0.431085044,-0.121568627,0.285362854
10.184,0.420332356,-0.121568627,0.282902829
10.192,0.409579668,-0.101960784,0.280442804
10.2,0.399804497,-0.096078431,0.27798278
10.208,0.391006843,-0.07254902,0.275522755
10.216,0.384164223,-0.060784314,0.273062731
10.224,0.377321603,-0.02745098,0.269372694
10.232,0.370478983,0.003921569,0.265682657
10.24,0.363636364,0.043137255,0.260762608
10.248,0.355816227,0.058823529,0.257072571
10.256,0.348973607,0.103921569,0.252152522
10.264,0.342130987,0.133333333,0.247232472
10.272,0.336265885,0.158823529,0.242312423
10.28,0.329423265,0.164705882,0.237392374
10.288,0.322580645,0.154901961,0.232472325
10.296,0.316715543,0.164705882,0.227552276
10.304,0.309872923,0.143137255,0.222632226
10.312,0.30400782,0.11372549,0.217712177
10.32,0.299120235,0.094117647,0.212792128
10.328,0.294232649,0.074509804,0.207872079
10.336,0.290322581,0.052941176,0.20295203
10.344,0.285434995,0.068627451,0.19803198
10.352,0.28054741,0.049019608,0.194341943
10.36,0.275659824,0.033333333,0.190651907
10.368,0.271749756,0.029411765,0.185731857
10.376,0.268817204,0.043137255,0.18204182
10.384,0.265884653,0.033333333,0.178351784
10.392,0.263929619,0.052941176,0.174661747
10.4,0.261974585,0.043137255,0.17097171
10.408,0.260997067,0.074509804,0.167281673
10.416,0.261974585,0.058823529,0.163591636
10.424,0.263929619,0.078431373,0.161131611
10.432,0.26686217,0.062745098,0.158671587
10.44,0.272727273,0.074509804,0.157441574
10.448,0.281524927,0.062745098,0.156211562
10.456,0.295210166,0.068627451,0.15498155
10.464,0.314760508,0.049019608,0.153751538
10.472,0.340175953,0.029411765,0.152521525
10.48,0.370478983,0.023529412,0.152521525
10.488,0.406647116,0.039215686,0.151291513
10.496,0.445747801,0.017647059,0.151291513
10.504,0.486803519,0.029411765,0.151291513
10.512,0.527859238,0.033333333,0.150061501
10.52,0.565982405,0.017647059,0.150061501
10.528,0.601173021,0.007843137,0.148831488
10.536,0.6285435,-0.001960784,0.147601476
10.544,0.650048876,0.01372549,0.146371464
10.552,0.670576735,0.003921569,0.146371464
10.56,0.688172043,0.007843137,0.145141451
10.568,0.7028348,0.01372549,0.143911439
10.576,0.713587488,0.023529412,0.142681427
10.584,0.721407625,-0.005882353,0.142681427
10.592,0.725317693,-0.001960784,0.141451415
10.6,0.72629521,0.01372549,0.141451415
10.608,0.724340176,0.049019608,0.140221402
10.616,0.720430108,0.149019608,0.13899139
10.624,0.713587488,0.278431373,0.137761378
10.632,0.704789834,0.349019608,0.135301353
10.64,0.695014663,0.033333333,0.136531365
10.648,0.683284457,-0.347058824,0.137761378
10.656,0.669599218,-0.456862745,0.140221402
10.664,0.653958944,-0.337254902,0.143911439
10.672,0.636363636,-0.156862745,0.147601476
10.68,0.618768328,-0.121568627,0.152521525
10.688,0.599217986,-0.092156863,0.156211562
10.696,0.580645161,-0.117647059,0.161131611
10.704,0.561094819,-0.101960784,0.166051661
10.712,0.541544477,-0.092156863,0.17097171
10.72,0.522971652,-0.111764706,0.175891759
10.728,0.504398827,-0.082352941,0.180811808
10.736,0.486803519,-0.105882353,0.185731857
10.744,0.472140762,-0.096078431,0.190651907
10.752,0.45943304,-0.105882353,0.195571956
10.76,0.445747801,-0.08627451,0.200492005
10.768,0.432062561,-0.101960784,0.206642066
10.776,0.419354839,-0.105882353,0.211562116
10.784,0.406647116,-0.117647059,0.217712177
10.792,0.394916911,-0.082352941,0.223862239
10.8,0.384164223,-0.111764706,0.228782288
10.808,0.374389052,-0.092156863,0.234932349
10.816,0.362658847,-0.07254902,0.239852399
10.824,0.349951124,-0.076470588,0.244772448
10.832,0.340175953,-0.060784314,0.249692497
10.84,0.332355816,-0.037254902,0.254612546
10.848,0.325513196,-0.005882353,0.259532595
10.856,0.320625611,0.049019608,0.263222632
10.864,0.315738025,0.058823529,0.268142681
10.872,0.309872923,0.119607843,0.273062731
10.88,0.30400782,0.139215686,0.27798278
10.888,0.298142717,0.164705882,0.282902829
10.896,0.292277615,0.178431373,0.289052891
10.904,0.287390029,0.188235294,0.29397294
10.912,0.281524927,0.2,0.298892989
10.92,0.276637341,0.164705882,0.303813038
10.928,0.272727273,0.188235294,0.308733087
10.936,0.268817204,0.119607843,0.313653137
10.944,0.263929619,0.119607843,0.318573186
10.952,0.261974585,0.088235294,0.323493235
10.96,0.26001955,0.068627451,0.330873309
10.968,0.257086999,0.049019608,0.33702337
10.976,0.255131965,0.062745098,0.344403444
10.984,0.252199413,0.052941176,0.35301353
10.992,0.251221896,0.062745098,0.360393604
11,0.249266862,0.049019608,0.367773678
11.008,0.248289345,0.052941176,0.375153752
11.016,0.248289345,0.049019608,0.382533825
11.024,0.248289345,0.068627451,0.391143911
11.032,0.248289345,0.052941176,0.398523985
11.04,0.249266862,0.068627451,0.407134071
11.048,0.250244379,0.074509804,0.414514145
11.056,0.253176931,0.078431373,0.421894219
11.064,0.257086999,0.068627451,0.429274293
11.072,0.261974585,0.078431373,0.436654367
11.08,0.268817204,0.068627451,0.442804428
11.088,0.279569892,0.052941176,0.44895449
11.096,0.294232649,0.033333333,0.455104551
11.104,0.314760508,0.029411765,0.461254613
11.112,0.340175953,0.043137255,0.466174662
11.12,0.370478983,0.023529412,0.471094711
11.128,0.404692082,0.039215686,0.474784748
11.136,0.441837732,0.023529412,0.478474785
11.144,0.479960899,0.029411765,0.480934809
11.152,0.517106549,0.023529412,0.482164822
11.16,0.54740958,0.033333333,0.484624846
11.168,0.573802542,0.023529412,0.484624846
11.176,0.599217986,0.033333333,0.484624846
11.184,0.622678397,0.017647059,0.483394834
11.192,0.643206256,0.023529412,0.483394834
11.2,0.659824047,0.01372549,0.480934809
11.208,0.672531769,0.029411765,0.478474785
11.216,0.681329423,0.007843137,0.47601476
11.224,0.686217009,0.023529412,0.473554736
11.232,0.688172043,0.01372549,0.469864699
11.24,0.687194526,0.043137255,0.466174662
11.248,0.683284457,0.098039216,0.464944649
11.256,0.676441838,0.249019608,0.462484625
11.264,0.667644184,0.358823529,0.461254613
11.272,0.657869013,0.390196078,0.4600246
11.28,0.646138807,-0.166666667,0.4600246
11.288,0.631476051,-0.42745098,0.4600246
11.296,0.615835777,-0.437254902,0.461254613
11.304,0.599217986,-0.196078431,0.462484625
11.312,0.580645161,-0.121568627,0.463714637
11.32,0.563049853,-0.105882353,0.466174662
11.328,0.544477028,-0.096078431,0.468634686
11.336,0.525904203,-0.111764706,0.471094711
11.344,0.508308895,-0.096078431,0.473554736
11.352,0.491691105,-0.111764706,0.47601476
11.36,0.475073314,-0.096078431,0.477244772
11.368,0.460410557,-0.117647059,0.479704797
11.376,0.447702835,-0.105882353,0.482164822
11.384,0.434995112,-0.121568627,0.484624846
11.392,0.421309873,-0.117647059,0.485854859
11.4,0.408602151,-0.12745098,0.488314883
11.408,0.396871945,-0.121568627,0.489544895
11.416,0.38514174,-0.12745098,0.490774908
11.424,0.374389052,-0.121568627,0.49200492
11.432,0.364613881,-0.12745098,0.49200492
11.44,0.355816227,-0.121568627,0.49200492
11.448,0.34799609,-0.12745098,0.49200492
11.456,0.340175953,-0.101960784,0.49200492
11.464,0.332355816,-0.096078431,0.490774908
11.472,0.327468231,-0.07254902,0.488314883
11.48,0.322580645,-0.056862745,0.485854859
11.488,0.31769306,-0.015686275,0.482164822
11.496,0.311827957,0.007843137,0.478474785
11.504,0.306940371,0.049019608,0.474784748
11.512,0.302052786,0.074509804,0.471094711
11.52,0.2971652,0.109803922,0.468634686
11.528,0.292277615,0.133333333,0.464944649
11.536,0.287390029,0.154901961,0.462484625
11.544,0.283479961,0.164705882,0.461254613
11.552,0.279569892,0.154901961,0.458794588
11.56,0.275659824,0.139215686,0.457564576
11.568,0.271749756,0.11372549,0.456334563
11.576,0.268817204,0.103921569,0.456334563
11.584,0.26686217,0.078431373,0.455104551
11.592,0.265884653,0.068627451,0.453874539
11.6,0.264907136,0.049019608,0.452644526
11.608,0.263929619,0.043137255,0.452644526
11.616,0.262952102,0.029411765,0.451414514
11.624,0.261974585,0.039215686,0.450184502
11.632,0.260997067,0.023529412,0.450184502
11.64,0.260997067,0.043137255,0.44895449
11.648,0.260997067,0.039215686,0.44895449
11.656,0.260997067,0.052941176,0.447724477
11.664,0.261974585,0.052941176,0.446494465
11.672,0.262952102,0.068627451,0.445264453
11.68,0.264907136,0.062745098,0.44403444
11.688,0.267839687,0.058823529,0.441574416
11.696,0.271749756,0.068627451,0.440344403
11.704,0.276637341,0.052941176,0.437884379
11.712,0.284457478,0.062745098,0.435424354
11.72,0.295210166,0.043137255,0.434194342
11.728,0.31085044,0.029411765,0.431734317
11.736,0.332355816,0.023529412,0.429274293
11.744,0.359726295,0.017647059,0.425584256
11.752,0.392961877,0.01372549,0.423124231
11.76,0.430107527,0.023529412,0.420664207
11.768,0.470185728,-0.001960784,0.41697417
11.776,0.51026393,0.003921569,0.413284133
11.784,0.550342131,-0.02745098,0.409594096
11.792,0.581622678,-0.021568627,0.407134071
11.8,0.608993157,-0.031372549,0.404674047
11.808,0.635386119,-0.02745098,0.402214022
11.816,0.659824047,-0.02745098,0.399753998
11.824,0.680351906,-0.021568627,0.397293973
11.832,0.696969697,-0.031372549,0.396063961
11.84,0.710654936,-0.02745098,0.393603936
11.848,0.71945259,-0.037254902,0.392373924
11.856,0.724340176,-0.02745098,0.388683887
11.864,0.72629521,-0.021568627,0.386223862
11.872,0.725317693,0.074509804,0.381303813
11.88,0.722385142,0.203921569,0.377613776
11.888,0.715542522,0.354901961,0.372693727
11.896,0.707722385,0.2,0.36900369
11.904,0.697947214,-0.292156863,0.364083641
11.912,0.687194526,-0.498039216,0.359163592
11.92,0.673509286,-0.37254902,0.355473555
11.928,0.657869013,-0.207843137,0.351783518
11.936,0.641251222,-0.162745098,0.348093481
11.944,0.622678397,-0.150980392,0.344403444
11.952,0.604105572,-0.162745098,0.341943419
11.96,0.58455523,-0.150980392,0.339483395
11.968,0.565982405,-0.162745098,0.339483395
11.976,0.546432063,-0.147058824,0.338253383
11.984,0.527859238,-0.156862745,0.33702337
11.992,0.509286413,-0.141176471,0.335793358
12,0.493646139,-0.150980392,0.333333333
12.008,0.479960899,-0.147058824,0.330873309
12.016,0.465298143,-0.162745098,0.328413284
12.024,0.451612903,-0.150980392,0.32595326
12.032,0.437927664,-0.166666667,0.322263223
12.04,0.425219941,-0.156862745,0.318573186
12.048,0.413489736,-0.166666667,0.316113161
12.056,0.402737048,-0.156862745,0.312423124
12.064,0.392961877,-0.162745098,0.3099631
12.072,0.383186706,-0.141176471,0.308733087
12.08,0.375366569,-0.141176471,0.306273063
12.088,0.366568915,-0.121568627,0.303813038
12.096,0.359726295,-0.111764706,0.301353014
12.104,0.353861193,-0.07254902,0.298892989
12.112,0.34799609,-0.050980392,0.295202952
12.12,0.342130987,-0.011764706,0.292742927
12.128,0.336265885,0.023529412,0.289052891
12.136,0.330400782,0.062745098,0.285362854
12.144,0.323558162,0.094117647,0.281672817
12.152,0.31769306,0.119607843,0.27798278
12.16,0.311827957,0.133333333,0.274292743
12.168,0.305962854,0.129411765,0.269372694
12.176,0.300097752,0.139215686,0.266912669
12.184,0.295210166,0.103921569,0.263222632
12.192,0.290322581,0.088235294,0.260762608
12.2,0.285434995,0.062745098,0.258302583
12.208,0.281524927,0.052941176,0.255842558
12.216,0.278592375,0.023529412,0.254612546
12.224,0.275659824,0.029411765,0.252152522
12.232,0.271749756,0.007843137,0.250922509
12.24,0.268817204,0.01372549,0.249692497
12.248,0.264907136,0.003921569,0.248462485
12.256,0.262952102,0.017647059,0.247232472
12.264,0.26001955,0.01372549,0.24600246
12.272,0.259042033,0.029411765,0.244772448
12.28,0.258064516,0.023529412,0.242312423
12.288,0.257086999,0.043137255,0.239852399
12.296,0.258064516,0.039215686,0.237392374
12.304,0.26001955,0.043137255,0.234932349
12.312,0.262952102,0.039215686,0.231242312
12.32,0.268817204,0.043137255,0.228782288
12.328,0.276637341,0.049019608,0.226322263
12.336,0.290322581,0.029411765,0.223862239
12.344,0.308895406,0.01372549,0.221402214
12.352,0.333333333,0.003921569,0.218942189
12.36,0.364613881,0.01372549,0.216482165
12.368,0.400782014,0.007843137,0.212792128
12.376,0.440860215,0.003921569,0.209102091
12.384,0.482893451,-0.001960784,0.204182042
12.392,0.524926686,0.003921569,0.200492005
12.4,0.565982405,-0.021568627,0.196801968
12.408,0.602150538,-0.015686275,0.191881919
12.416,0.631476051,-0.02745098,0.188191882
12.424,0.653958944,-0.02745098,0.184501845
12.432,0.676441838,-0.037254902,0.180811808
12.44,0.695014663,-0.02745098,0.175891759
12.448,0.711632454,-0.031372549,0.17097171
12.456,0.723362659,-0.011764706,0.167281673
12.464,0.732160313,-0.037254902,0.162361624
12.472,0.738025415,-0.02745098,0.157441574
12.48,0.73998045,-0.005882353,0.152521525
12.488,0.73998045,0.074509804,0.148831488
12.496,0.737047898,0.2,0.143911439
12.504,0.731182796,0.345098039,0.13899139
12.512,0.724340176,0.370588235,0.134071341
12.52,0.713587488,-0.196078431,0.129151292
12.528,0.7028348,-0.488235294,0.124231242
12.536,0.691104594,-0.401960784,0.119311193
12.544,0.676441838,-0.211764706,0.115621156
12.552,0.660801564,-0.137254902,0.111931119
12.56,0.643206256,-0.121568627,0.109471095
12.568,0.624633431,-0.137254902,0.10701107
12.576,0.606060606,-0.121568627,0.105781058
12.584,0.587487781,-0.141176471,0.104551046
12.592,0.567937439,-0.131372549,0.103321033
12.6,0.549364614,-0.137254902,0.103321033
12.608,0.531769306,-0.12745098,0.103321033
12.616,0.514173998,-0.141176471,0.103321033
12.624,0.497556207,-0.121568627,0.102091021
12.632,0.483870968,-0.12745098,0.102091021
12.64,0.471163245,-0.121568627,0.099630996
12.648,0.458455523,-0.141176471,0.098400984
12.656,0.445747801,-0.121568627,0.095940959
12.664,0.434017595,-0.141176471,0.094710947
12.672,0.42228739,-0.12745098,0.09102091
12.68,0.411534702,-0.141176471,0.088560886
12.688,0.401759531,-0.105882353,0.084870849
12.696,0.39198436,-0.111764706,0.081180812
12.704,0.383186706,-0.08627451,0.077490775
12.712,0.375366569,-0.082352941,0.073800738
12.72,0.366568915,-0.037254902,0.070110701
12.728,0.358748778,-0.021568627,0.067650677
12.736,0.352883675,0.007843137,0.065190652
12.744,0.347018573,0.052941176,0.062730627
12.752,0.34115347,0.084313725,0.061500615
12.76,0.33431085,0.109803922,0.05904059
12.768,0.327468231,0.154901961,0.057810578
12.776,0.320625611,0.164705882,0.056580566
12.784,0.312805474,0.154901961,0.054120541
12.792,0.305962854,0.164705882,0.052890529
12.8,0.298142717,0.139215686,0.051660517
12.808,0.291300098,0.123529412,0.049200492
12.816,0.284457478,0.11372549,0.04797048
12.824,0.277614858,0.094117647,0.04797048
12.832,0.271749756,0.068627451,0.046740467
12.84,0.26686217,0.058823529,0.046740467
12.848,0.263929619,0.049019608,0.04797048
12.856,0.259042033,0.043137255,0.04797048
12.864,0.255131965,0.029411765,0.049200492
12.872,0.252199413,0.043137255,0.049200492
12.88,0.248289345,0.023529412,0.050430504
12.888,0.245356794,0.029411765,0.050430504
12.896,0.24340176,0.043137255,0.050430504
12.904,0.242424242,0.049019608,0.051660517
12.912,0.241446725,0.043137255,0.052890529
12.92,0.242424242,0.058823529,0.054120541
12.928,0.244379277,0.062745098,0.056580566
12.936,0.249266862,0.043137255,0.057810578
12.944,0.257086999,0.062745098,0.060270603
12.952,0.26686217,0.052941176,0.061500615
12.96,0.282502444,0.068627451,0.06396064
12.968,0.303030303,0.043137255,0.065190652
12.976,0.330400782,0.023529412,0.067650677
12.984,0.363636364,0.003921569,0.068880689
12.992,0.401759531,-0.001960784,0.071340713
13,0.441837732,-0.001960784,0.072570726
13.008,0.482893451,0.029411765,0.07503075
13.016,0.523949169,0.007843137,0.076260763
13.024,0.561094819,0.003921569,0.078720787
13.032,0.595307918,-0.021568627,0.0799508
13.04,0.624633431,-0.011764706,0.081180812
13.048,0.647116325,-0.031372549,0.083640836
13.056,0.663734115,0.007843137,0.084870849
13.064,0.679374389,-0.021568627,0.086100861
13.072,0.692082111,0.003921569,0.088560886
13.08,0.700879765,-0.02745098,0.089790898
13.088,0.707722385,-0.005882353,0.09102091
13.096,0.711632454,0.003921569,0.093480935
13.104,0.711632454,-0.001960784,0.095940959
13.112,0.708699902,0.023529412,0.098400984
13.12,0.703812317,0.143137255,0.102091021
13.128,0.69599218,0.254901961,0.104551046
13.136,0.686217009,0.354901961,0.108241082
13.144,0.674486804,0.003921569,0.113161132
13.152,0.662756598,-0.362745098,0.116851169
13.16,0.649071359,-0.478431373,0.121771218
13.168,0.633431085,-0.343137255,0.126691267
13.176,0.616813294,-0.18627451,0.131611316
13.184,0.599217986,-0.131372549,0.137761378
13.192,0.580645161,-0.105882353,0.142681427
13.2,0.562072336,-0.131372549,0.148831488
13.208,0.542521994,-0.101960784,0.15498155
13.216,0.523949169,-0.101960784,0.161131611
13.224,0.505376344,-0.096078431,0.167281673
13.232,0.487781036,-0.121568627,0.173431734
13.24,0.470185728,-0.105882353,0.179581796
13.248,0.454545455,-0.111764706,0.18696187
13.256,0.440860215,-0.101960784,0.193111931
13.264,0.42913001,-0.12745098,0.200492005
13.272,0.417399804,-0.117647059,0.206642066
13.28,0.405669599,-0.096078431,0.21402214
13.288,0.393939394,-0.111764706,0.221402214
13.296,0.383186706,-0.117647059,0.228782288
13.304,0.372434018,-0.096078431,0.236162362
13.312,0.363636364,-0.111764706,0.243542435
13.32,0.35483871,-0.096078431,0.252152522
13.328,0.347018573,-0.092156863,0.258302583
13.336,0.339198436,-0.056862745,0.265682657
13.344,0.332355816,-0.031372549,0.273062731
13.352,0.325513196,0.003921569,0.279212792
13.36,0.319648094,0.007843137,0.285362854
13.368,0.314760508,0.052941176,0.291512915
13.376,0.308895406,0.098039216,0.297662977
13.384,0.30400782,0.139215686,0.303813038
13.392,0.298142717,0.158823529,0.3099631
13.4,0.292277615,0.184313725,0.317343173
13.408,0.286412512,0.194117647,0.324723247
13.416,0.281524927,0.184313725,0.330873309
13.424,0.276637341,0.188235294,0.338253383
13.432,0.271749756,0.149019608,0.344403444
13.44,0.26686217,0.139215686,0.350553506
13.448,0.261974585,0.11372549,0.356703567
13.456,0.257086999,0.103921569,0.362853629
13.464,0.254154448,0.084313725,0.36900369
13.472,0.252199413,0.094117647,0.373923739
13.48,0.249266862,0.074509804,0.380073801
13.488,0.247311828,0.078431373,0.38499385
13.496,0.244379277,0.068627451,0.389913899
13.504,0.24340176,0.078431373,0.394833948
13.512,0.241446725,0.062745098,0.40098401
13.52,0.241446725,0.074509804,0.405904059
13.528,0.240469208,0.078431373,0.410824108
13.536,0.241446725,0.068627451,0.415744157
13.544,0.242424242,0.084313725,0.420664207
13.552,0.24340176,0.078431373,0.424354244
13.56,0.245356794,0.094117647,0.429274293
13.568,0.249266862,0.078431373,0.434194342
13.576,0.253176931,0.094117647,0.439114391
13.584,0.258064516,0.084313725,0.442804428
13.592,0.265884653,0.094117647,0.446494465
13.6,0.277614858,0.068627451,0.450184502
13.608,0.293255132,0.062745098,0.453874539
13.616,0.312805474,0.043137255,0.456334563
13.624,0.338220919,0.049019608,0.458794588
13.632,0.367546432,0.039215686,0.461254613
13.64,0.400782014,0.043137255,0.462484625
13.648,0.43597263,0.023529412,0.464944649
13.656,0.471163245,0.033333333,0.466174662
13.664,0.505376344,0.017647059,0.468634686
13.672,0.537634409,0.023529412,0.469864699
13.68,0.563049853,0.01372549,0.472324723
13.688,0.583577713,0.023529412,0.473554736
13.696,0.603128055,0.007843137,0.474784748
13.704,0.620723363,0.017647059,0.477244772
13.712,0.635386119,0.003921569,0.478474785
13.72,0.647116325,0.01372549,0.479704797
13.728,0.654936461,0.003921569,0.479704797
13.736,0.65884653,0.007843137,0.480934809
13.744,0.659824047,0.01372549,0.480934809
13.752,0.657869013,0.068627451,0.482164822
13.76,0.652981427,0.2,0.482164822
13.768,0.64516129,0.335294118,0.482164822
13.776,0.634408602,0.4,0.483394834
13.784,0.623655914,-0.060784314,0.483394834
13.792,0.610948192,-0.423529412,0.484624846
13.8,0.596285435,-0.462745098,0.485854859
13.808,0.579667644,-0.231372549,0.487084871
13.816,0.562072336,-0.150980392,0.488314883
13.824,0.543499511,-0.12745098,0.489544895
13.832,0.524926686,-0.141176471,0.490774908
13.84,0.505376344,-0.12745098,0.49200492
13.848,0.486803519,-0.141176471,0.494464945
13.856,0.468230694,-0.131372549,0.496924969
13.864,0.449657869,-0.141176471,0.499384994
13.872,0.433040078,-0.131372549,0.500615006
13.88,0.416422287,-0.141176471,0.503075031
13.888,0.403714565,-0.131372549,0.504305043
13.896,0.39198436,-0.141176471,0.505535055
13.904,0.380254154,-0.137254902,0.505535055
13.912,0.369501466,-0.150980392,0.506765068
13.92,0.358748778,-0.141176471,0.506765068
13.928,0.34799609,-0.150980392,0.506765068
13.936,0.339198436,-0.141176471,0.504305043
13.944,0.331378299,-0.131372549,0.503075031
13.952,0.323558162,-0.137254902,0.498154982
13.96,0.31769306,-0.121568627,0.494464945
13.968,0.311827957,-0.105882353,0.489544895
13.976,0.305962854,-0.08627451,0.485854859
13.984,0.301075269,-0.066666667,0.480934809
13.992,0.298142717,-0.031372549,0.47601476
14,0.296187683,0.003921569,0.471094711
14.008,0.293255132,0.033333333,0.466174662
14.016,0.290322581,0.062745098,0.461254613
14.024,0.287390029,0.109803922,0.456334563
14.032,0.285434995,0.133333333,0.452644526
14.04,0.283479961,0.164705882,0.44895449
14.048,0.281524927,0.168627451,0.445264453
14.056,0.279569892,0.174509804,0.441574416
14.064,0.278592375,0.154901961,0.439114391
14.072,0.277614858,0.143137255,0.435424354
14.08,0.276637341,0.109803922,0.43296433
14.088,0.275659824,0.103921569,0.429274293
14.096,0.275659824,0.078431373,0.426814268
14.104,0.276637341,0.068627451,0.423124231
14.112,0.276637341,0.049019608,0.420664207
14.12,0.277614858,0.052941176,0.41697417
14.128,0.277614858,0.043137255,0.414514145
14.136,0.278592375,0.043137255,0.410824108
14.144,0.278592375,0.043137255,0.408364084
14.152,0.279569892,0.052941176,0.404674047
14.16,0.28054741,0.062745098,0.40098401
14.168,0.281524927,0.052941176,0.398523985
14.176,0.283479961,0.074509804,0.393603936
14.184,0.284457478,0.062745098,0.389913899
14.192,0.287390029,0.074509804,0.386223862
14.2,0.291300098,0.062745098,0.382533825
14.208,0.2971652,0.068627451,0.378843788
14.216,0.304985337,0.049019608,0.376383764
14.224,0.316715543,0.039215686,0.372693727
14.232,0.33431085,0.023529412,0.370233702
14.24,0.357771261,0.023529412,0.367773678
14.248,0.387096774,0.017647059,0.365313653
14.256,0.421309873,0.023529412,0.362853629
14.264,0.460410557,0.017647059,0.360393604
14.272,0.502443793,0.023529412,0.356703567
14.28,0.544477028,-0.001960784,0.35301353
14.288,0.585532747,0.003921569,0.349323493
14.296,0.622678397,-0.005882353,0.345633456
14.304,0.65200391,-0.001960784,0.340713407
14.312,0.675464321,-0.005882353,0.33702337
14.32,0.697947214,-0.001960784,0.332103321
14.328,0.717497556,-0.015686275,0.327183272
14.336,0.734115347,-0.005882353,0.323493235
14.344,0.746823069,-0.001960784,0.318573186
14.352,0.755620723,-0.005882353,0.313653137
14.36,0.760508309,0.01372549,0.308733087
14.368,0.762463343,0.084313725,0.303813038
14.376,0.761485826,0.223529412,0.298892989
14.384,0.757575758,0.370588235,0.295202952
14.392,0.750733138,0.4,0.291512915
14.4,0.741935484,-0.192156863,0.289052891
14.408,0.731182796,-0.452941176,0.285362854
14.416,0.71945259,-0.356862745,0.282902829
14.424,0.705767351,-0.182352941,0.281672817
14.432,0.691104594,-0.12745098,0.279212792
14.44,0.673509286,-0.121568627,0.27798278
14.448,0.655913978,-0.121568627,0.276752768
14.456,0.636363636,-0.105882353,0.275522755
14.464,0.617790811,-0.117647059,0.275522755
14.472,0.597262952,-0.101960784,0.275522755
14.48,0.57771261,-0.111764706,0.275522755
14.488,0.559139785,-0.096078431,0.275522755
14.496,0.539589443,-0.105882353,0.275522755
14.504,0.521994135,-0.096078431,0.274292743
14.512,0.506353861,-0.105882353,0.274292743
14.52,0.492668622,-0.101960784,0.274292743
14.528,0.478983382,-0.111764706,0.274292743
14.536,0.465298143,-0.101960784,0.274292743
14.544,0.45259042,-0.105882353,0.273062731
14.552,0.439882698,-0.101960784,0.273062731
14.56,0.42913001,-0.096078431,0.273062731
14.568,0.418377322,-0.101960784,0.273062731
14.576,0.408602151,-0.08627451,0.271832718
14.584,0.398826979,-0.07254902,0.271832718
14.592,0.390029326,-0.050980392,0.270602706
14.6,0.381231672,-0.031372549,0.269372694
14.608,0.373411535,-0.001960784,0.266912669
14.616,0.367546432,0.029411765,0.265682657
14.624,0.361681329,0.068627451,0.264452645
14.632,0.35483871,0.098039216,0.26199262
14.64,0.348973607,0.133333333,0.260762608
14.648,0.342130987,0.158823529,0.258302583
14.656,0.335288368,0.184313725,0.255842558
14.664,0.328445748,0.178431373,0.254612546
14.672,0.321603128,0.174509804,0.252152522
14.68,0.315738025,0.149019608,0.250922509
14.688,0.308895406,0.139215686,0.249692497
14.696,0.303030303,0.109803922,0.248462485
14.704,0.2971652,0.103921569,0.247232472
14.712,0.291300098,0.078431373,0.247232472
14.72,0.286412512,0.078431373,0.247232472
14.728,0.28054741,0.058823529,0.247232472
14.736,0.276637341,0.052941176,0.247232472
14.744,0.27370479,0.043137255,0.248462485
14.752,0.270772239,0.052941176,0.248462485
14.76,0.267839687,0.043137255,0.248462485
14.768,0.264907136,0.058823529,0.248462485
14.776,0.261974585,0.052941176,0.248462485
14.784,0.260997067,0.068627451,0.248462485
14.792,0.26001955,0.074509804,0.248462485
14.8,0.260997067,0.062745098,0.248462485
14.808,0.263929619,0.074509804,0.248462485
14.816,0.269794721,0.068627451,0.248462485
14.824,0.279569892,0.062745098,0.248462485
14.832,0.292277615,0.049019608,0.248462485
14.84,0.308895406,0.043137255,0.248462485
14.848,0.332355816,0.029411765,0.247232472
14.856,0.362658847,0.033333333,0.247232472
14.864,0.397849462,0.029411765,0.24600246
14.872,0.437927664,0.029411765,0.244772448
14.88,0.479960899,0.017647059,0.242312423
14.888,0.521016618,0.023529412,0.239852399
14.896,0.561094819,-0.001960784,0.237392374
14.904,0.598240469,0.007843137,0.234932349
14.912,0.627565982,-0.005882353,0.231242312
14.92,0.65200391,0.003921569,0.227552276
14.928,0.672531769,-0.001960784,0.223862239
14.936,0.687194526,0.003921569,0.220172202
14.944,0.697947214,-0.001960784,0.215252153
14.952,0.707722385,0.003921569,0.211562116
14.96,0.715542522,0.007843137,0.206642066
14.968,0.720430108,-0.001960784,0.201722017
14.976,0.722385142,0.023529412,0.196801968
14.984,0.721407625,0.103921569,0.191881919
14.992,0.71945259,0.245098039,0.185731857
15,0.713587488,0.384313725,0.179581796
15.008,0.706744868,0.390196078,0.174661747
15.016,0.696969697,-0.221568627,0.168511685
15.024,0.686217009,-0.452941176,0.164821648
15.032,0.672531769,-0.352941176,0.161131611
15.04,0.65884653,-0.17254902,0.158671587
15.048,0.64516129,-0.121568627,0.157441574
15.056,0.629521017,-0.105882353,0.157441574
15.064,0.611925709,-0.117647059,0.157441574
15.072,0.594330401,-0.096078431,0.158671587
15.08,0.575757576,-0.111764706,0.161131611
15.088,0.557184751,-0.096078431,0.162361624
15.096,0.539589443,-0.111764706,0.163591636
15.104,0.521994135,-0.096078431,0.164821648
15.112,0.505376344,-0.105882353,0.166051661
15.12,0.488758553,-0.096078431,0.167281673
15.128,0.474095797,-0.111764706,0.168511685
15.136,0.45943304,-0.096078431,0.168511685
15.144,0.447702835,-0.111764706,0.169741697
15.152,0.437927664,-0.101960784,0.169741697
15.16,0.427174976,-0.111764706,0.17097171
15.168,0.417399804,-0.101960784,0.17097171
15.176,0.407624633,-0.096078431,0.172201722
15.184,0.398826979,-0.105882353,0.172201722
15.192,0.390029326,-0.08627451,0.172201722
15.2,0.382209189,-0.07254902,0.173431734
15.208,0.374389052,-0.050980392,0.173431734
15.216,0.366568915,-0.021568627,0.173431734
15.224,0.359726295,0.007843137,0.173431734
15.232,0.351906158,0.033333333,0.174661747
15.24,0.345063539,0.068627451,0.174661747
15.248,0.340175953,0.098039216,0.175891759
15.256,0.335288368,0.139215686,0.177121771
15.264,0.329423265,0.158823529,0.179581796
15.272,0.322580645,0.184313725,0.180811808
15.28,0.316715543,0.178431373,0.183271833
15.288,0.309872923,0.184313725,0.184501845
15.296,0.30400782,0.149019608,0.185731857
15.304,0.2971652,0.143137255,0.18696187
15.312,0.291300098,0.109803922,0.18696187
15.32,0.285434995,0.103921569,0.188191882
15.328,0.279569892,0.074509804,0.18696187
15.336,0.27370479,0.068627451,0.18696187
15.344,0.267839687,0.049019608,0.18696187
15.352,0.264907136,0.058823529,0.188191882
15.36,0.261974585,0.033333333,0.188191882
15.368,0.259042033,0.043137255,0.189421894
15.376,0.255131965,0.039215686,0.189421894
15.384,0.253176931,0.049019608,0.190651907
15.392,0.250244379,0.052941176,0.190651907
15.4,0.249266862,0.049019608,0.191881919
15.408,0.249266862,0.068627451,0.191881919
15.416,0.250244379,0.058823529,0.193111931
15.424,0.253176931,0.068627451,0.194341943
15.432,0.259042033,0.058823529,0.195571956
15.44,0.268817204,0.062745098,0.196801968
15.448,0.283479961,0.039215686,0.19803198
15.456,0.300097752,0.033333333,0.19803198
15.464,0.320625611,0.017647059,0.199261993
15.472,0.34799609,0.023529412,0.19803198
15.48,0.381231672,0.01372549,0.19803198
15.488,0.419354839,0.017647059,0.19803198
15.496,0.458455523,0.003921569,0.196801968
15.504,0.498533724,0.007843137,0.195571956
15.512,0.537634409,-0.011764706,0.194341943
15.52,0.572825024,-0.001960784,0.191881919
15.528,0.605083089,-0.011764706,0.189421894
15.536,0.632453568,-0.001960784,0.18696187
15.544,0.655913978,-0.011764706,0.184501845
15.552,0.675464321,-0.001960784,0.18204182
15.56,0.688172043,-0.011764706,0.179581796
15.568,0.69599218,-0.001960784,0.177121771
15.576,0.7028348,-0.011764706,0.173431734
15.584,0.707722385,-0.001960784,0.169741697
15.592,0.709677419,0.01372549,0.166051661
15.6,0.709677419,0.084313725,0.161131611
15.608,0.706744868,0.219607843,0.157441574
15.616,0.701857283,0.354901961,0.153751538
15.624,0.695014663,0.380392157,0.150061501
15.632,0.685239492,-0.192156863,0.147601476
15.64,0.674486804,-0.456862745,0.145141451
15.648,0.661779081,-0.378431373,0.143911439
15.656,0.647116325,-0.192156863,0.142681427
15.664,0.632453568,-0.131372549,0.143911439
15.672,0.618768328,-0.121568627,0.143911439
15.68,0.603128055,-0.121568627,0.145141451
15.688,0.585532747,-0.111764706,0.147601476
15.696,0.568914956,-0.121568627,0.148831488
15.704,0.551319648,-0.105882353,0.151291513
15.712,0.53372434,-0.121568627,0.152521525
15.72,0.517106549,-0.117647059,0.15498155
15.728,0.500488759,-0.121568627,0.156211562
15.736,0.485826002,-0.105882353,0.157441574
15.744,0.471163245,-0.12745098,0.158671587
15.752,0.457478006,-0.121568627,0.158671587
15.76,0.444770283,-0.131372549,0.159901599
15.768,0.433040078,-0.12745098,0.159901599
15.776,0.42228739,-0.121568627,0.161131611
15.784,0.414467253,-0.12745098,0.162361624
15.792,0.404692082,-0.117647059,0.163591636
15.8,0.395894428,-0.121568627,0.163591636
15.808,0.387096774,-0.096078431,0.163591636
15.816,0.37829912,-0.08627451,0.163591636
15.824,0.370478983,-0.07254902,0.161131611
15.832,0.363636364,-0.050980392,0.158671587
15.84,0.355816227,-0.011764706,0.156211562
15.848,0.348973607,0.01372549,0.152521525
15.856,0.34115347,0.052941176,0.150061501
15.864,0.33431085,0.074509804,0.146371464
15.872,0.327468231,0.11372549,0.145141451
15.88,0.322580645,0.133333333,0.142681427
15.888,0.31769306,0.164705882,0.141451415
15.896,0.312805474,0.158823529,0.13899139
15.904,0.306940371,0.154901961,0.137761378
15.912,0.301075269,0.129411765,0.135301353
15.92,0.295210166,0.119607843,0.134071341
15.928,0.289345064,0.088235294,0.131611316
15.936,0.283479961,0.074509804,0.129151292
15.944,0.277614858,0.052941176,0.126691267
15.952,0.272727273,0.049019608,0.124231242
15.96,0.26686217,0.023529412,0.121771218
15.968,0.262952102,0.033333333,0.120541205
15.976,0.258064516,0.023529412,0.118081181
15.984,0.255131965,0.039215686,0.115621156
15.992,0.254154448,0.029411765,0.113161132
16,0.251221896,0.049019608,0.110701107
16.008,0.249266862,0.052941176,0.108241082
16.016,0.248289345,0.043137255,0.105781058
16.024,0.247311828,0.058823529,0.103321033
16.032,0.248289345,0.049019608,0.099630996
16.04,0.251221896,0.058823529,0.097170972
16.048,0.256109482,0.068627451,0.094710947
16.056,0.265884653,0.074509804,0.092250923
16.064,0.28054741,0.039215686,0.09102091
16.072,0.301075269,0.043137255,0.088560886
16.08,0.327468231,0.007843137,0.086100861
16.088,0.35483871,0.023529412,0.084870849
16.096,0.384164223,0.01372549,0.082410824
16.104,0.419354839,0.023529412,0.0799508
16.112,0.457478006,0.017647059,0.076260763
16.12,0.49657869,0.023529412,0.073800738
16.128,0.53372434,-0.001960784,0.070110701
16.136,0.568914956,0.003921569,0.066420664
16.144,0.600195503,-0.011764706,0.06396064
16.152,0.627565982,0.007843137,0.060270603
16.16,0.650048876,-0.011764706,0.057810578
16.168,0.668621701,0.007843137,0.054120541
16.176,0.68230694,-0.011764706,0.050430504
16.184,0.693059629,-0.001960784,0.046740467
16.192,0.698924731,0.003921569,0.043050431
16.2,0.700879765,-0.001960784,0.039360394
16.208,0.701857283,-0.001960784,0.036900369
16.216,0.700879765,0.062745098,0.033210332
16.224,0.696969697,0.2,0.030750308
16.232,0.692082111,0.303921569,0.027060271
16.24,0.684261975,0.345098039,0.025830258
16.248,0.675464321,-0.131372549,0.024600246
16.256,0.663734115,-0.447058824,0.023370234
16.264,0.651026393,-0.498039216,0.023370234
16.272,0.635386119,-0.266666667,0.023370234
16.28,0.619745846,-0.141176471,0.024600246
16.288,0.602150538,-0.111764706,0.025830258
16.296,0.586510264,-0.105882353,0.027060271
16.304,0.57086999,-0.101960784,0.029520295
16.312,0.553274682,-0.101960784,0.03198032
16.32,0.535679374,-0.101960784,0.034440344
16.328,0.518084066,-0.076470588,0.038130381
16.336,0.500488759,-0.101960784,0.040590406
16.344,0.483870968,-0.111764706,0.044280443
16.352,0.468230694,-0.08627451,0.04797048
16.36,0.45259042,-0.096078431,0.051660517
16.368,0.438905181,-0.08627451,0.055350554
16.376,0.425219941,-0.117647059,0.060270603
16.384,0.412512219,-0.092156863,0.06396064
16.392,0.400782014,-0.08627451,0.068880689
16.4,0.391006843,-0.105882353,0.072570726
16.408,0.383186706,-0.08627451,0.076260763
16.416,0.375366569,-0.096078431,0.0799508
16.424,0.366568915,-0.07254902,0.083640836
16.432,0.358748778,-0.076470588,0.086100861
16.44,0.350928641,-0.07254902,0.089790898
16.448,0.343108504,-0.021568627,0.092250923
16.456,0.336265885,-0.001960784,0.094710947
16.464,0.329423265,0.039215686,0.097170972
16.472,0.322580645,0.078431373,0.099630996
16.48,0.315738025,0.098039216,0.102091021
16.488,0.309872923,0.129411765,0.105781058
16.496,0.303030303,0.168627451,0.109471095
16.504,0.298142717,0.194117647,0.113161132
16.512,0.294232649,0.188235294,0.116851169
16.52,0.289345064,0.174509804,0.120541205
16.528,0.284457478,0.164705882,0.124231242
16.536,0.279569892,0.143137255,0.127921279
16.544,0.274682307,0.119607843,0.131611316
16.552,0.269794721,0.098039216,0.135301353
16.56,0.264907136,0.074509804,0.140221402
16.568,0.26001955,0.078431373,0.143911439
16.576,0.256109482,0.052941176,0.150061501
16.584,0.252199413,0.058823529,0.15498155
16.592,0.249266862,0.049019608,0.161131611
16.6,0.246334311,0.062745098,0.167281673
16.608,0.244379277,0.068627451,0.174661747
16.616,0.24340176,0.033333333,0.180811808
16.624,0.24340176,0.049019608,0.188191882
16.632,0.242424242,0.039215686,0.195571956
16.64,0.242424242,0.078431373,0.20295203
16.648,0.242424242,0.068627451,0.209102091
16.656,0.24340176,0.074509804,0.216482165
16.664,0.246334311,0.049019608,0.223862239
16.672,0.250244379,0.084313725,0.231242312
16.68,0.256109482,0.068627451,0.238622386
16.688,0.265884653,0.074509804,0.24600246
16.696,0.278592375,0.062745098,0.253382534
16.704,0.2971652,0.043137255,0.259532595
16.712,0.320625611,0.052941176,0.266912669
16.72,0.345063539,0.043137255,0.273062731
16.728,0.370478983,0.023529412,0.280442804
16.736,0.402737048,0.033333333,0.286592866
16.744,0.437927664,0.023529412,0.292742927
16.752,0.474095797,0.043137255,0.297662977
16.76,0.509286413,0.017647059,0.302583026
16.768,0.541544477,0.033333333,0.307503075
16.776,0.57086999,0.007843137,0.311193112
16.784,0.597262952,0.003921569,0.314883149
16.792,0.618768328,0.033333333,0.319803198
16.8,0.636363636,0.029411765,0.322263223
16.808,0.650048876,0.033333333,0.32595326
16.816,0.659824047,0.017647059,0.329643296
16.824,0.66568915,0.033333333,0.333333333
16.832,0.667644184,0.023529412,0.335793358
16.84,0.667644184,0.062745098,0.339483395
16.848,0.66568915,0.109803922,0.343173432
16.856,0.660801564,0.229411765,0.346863469
16.864,0.652981427,0.364705882,0.351783518
16.872,0.644183773,0.394117647,0.356703567
16.88,0.632453568,-0.121568627,0.361623616
16.888,0.619745846,-0.392156863,0.367773678
16.896,0.605083089,-0.437254902,0.373923739
16.904,0.589442815,-0.217647059,0.381303813
16.912,0.572825024,-0.117647059,0.387453875
16.92,0.556207234,-0.082352941,0.394833948
16.928,0.54056696,-0.08627451,0.40098401
16.936,0.525904203,-0.07254902,0.407134071
16.944,0.51026393,-0.076470588,0.413284133
16.952,0.493646139,-0.066666667,0.418204182
16.96,0.480938416,-0.07254902,0.423124231
16.968,0.471163245,-0.060784314,0.42804428
16.976,0.458455523,-0.076470588,0.431734317
16.984,0.445747801,-0.07254902,0.435424354
16.992,0.433040078,-0.076470588,0.437884379
17,0.421309873,-0.082352941,0.440344403
17.008,0.409579668,-0.076470588,0.442804428
17.016,0.398826979,-0.092156863,0.446494465
17.024,0.389051808,-0.082352941,0.44895449
17.032,0.381231672,-0.092156863,0.452644526
17.04,0.375366569,-0.082352941,0.455104551
17.048,0.368523949,-0.092156863,0.457564576
17.056,0.361681329,-0.07254902,0.458794588
17.064,0.35483871,-0.056862745,0.461254613
17.072,0.348973607,-0.037254902,0.462484625
17.08,0.343108504,-0.015686275,0.464944649
17.088,0.337243402,0.023529412,0.466174662
17.096,0.332355816,0.043137255,0.467404674
17.104,0.327468231,0.088235294,0.468634686
17.112,0.322580645,0.109803922,0.468634686
17.12,0.31769306,0.149019608,0.468634686
17.128,0.313782991,0.164705882,0.468634686
17.136,0.309872923,0.188235294,0.469864699
17.144,0.306940371,0.178431373,0.471094711
17.152,0.30400782,0.178431373,0.472324723
17.16,0.300097752,0.143137255,0.473554736
17.168,0.296187683,0.133333333,0.474784748
17.176,0.292277615,0.094117647,0.47601476
17.184,0.288367546,0.094117647,0.47601476
17.192,0.285434995,0.068627451,0.477244772
17.2,0.282502444,0.058823529,0.478474785
17.208,0.279569892,0.043137255,0.479704797
17.216,0.276637341,0.033333333,0.480934809
17.224,0.274682307,0.039215686,0.482164822
17.232,0.27370479,0.023529412,0.483394834
17.24,0.272727273,0.033333333,0.484624846
17.248,0.27370479,0.023529412,0.485854859
17.256,0.27370479,0.043137255,0.487084871
17.264,0.27370479,0.033333333,0.488314883
17.272,0.274682307,0.052941176,0.490774908
17.28,0.274682307,0.043137255,0.49200492
17.288,0.276637341,0.052941176,0.493234932
17.296,0.278592375,0.043137255,0.493234932
17.304,0.281524927,0.052941176,0.494464945
17.312,0.286412512,0.033333333,0.493234932
17.32,0.294232649,0.023529412,0.493234932
17.328,0.305962854,0.007843137,0.49200492
17.336,0.322580645,0.017647059,0.490774908
17.344,0.340175953,0.003921569,0.489544895
17.352,0.361681329,0.01372549,0.488314883
17.36,0.389051808,-0.001960784,0.485854859
17.368,0.42228739,0.007843137,0.483394834
17.376,0.45943304,-0.011764706,0.479704797
17.384,0.497556207,-0.015686275,0.477244772
17.392,0.534701857,-0.02745098,0.473554736
17.4,0.57086999,-0.015686275,0.469864699
17.408,0.604105572,-0.02745098,0.464944649
17.416,0.633431085,-0.015686275,0.461254613
17.424,0.65884653,-0.011764706,0.457564576
17.432,0.679374389,-0.021568627,0.453874539
17.44,0.695014663,-0.011764706,0.450184502
17.448,0.704789834,-0.015686275,0.446494465
17.456,0.710654936,-0.001960784,0.441574416
17.464,0.715542522,0.029411765,0.436654367
17.472,0.717497556,0.129411765,0.431734317
17.48,0.716520039,0.264705882,0.426814268
17.488,0.712609971,0.394117647,0.421894219
17.496,0.706744868,0.168627451,0.41697417
17.504,0.697947214,-0.321568627,0.412054121
17.512,0.687194526,-0.462745098,0.408364084
17.52,0.674486804,-0.292156863,0.404674047
17.528,0.660801564,-0.17254902,0.40098401
17.536,0.644183773,-0.12745098,0.398523985
17.544,0.627565982,-0.141176471,0.394833948
17.552,0.610948192,-0.121568627,0.392373924
17.56,0.595307918,-0.131372549,0.389913899
17.568,0.578690127,-0.111764706,0.387453875
17.576,0.561094819,-0.121568627,0.383763838
17.584,0.543499511,-0.111764706,0.381303813
17.592,0.525904203,-0.121568627,0.380073801
17.6,0.509286413,-0.111764706,0.377613776
17.608,0.493646139,-0.121568627,0.376383764
17.616,0.478983382,-0.117647059,0.375153752
17.624,0.465298143,-0.121568627,0.373923739
17.632,0.451612903,-0.117647059,0.373923739
17.64,0.439882698,-0.121568627,0.373923739
17.648,0.428152493,-0.121568627,0.373923739
17.656,0.419354839,-0.111764706,0.372693727
17.664,0.411534702,-0.117647059,0.372693727
17.672,0.402737048,-0.101960784,0.372693727
17.68,0.394916911,-0.096078431,0.371463715
17.688,0.387096774,-0.07254902,0.371463715
17.696,0.379276637,-0.056862745,0.36900369
17.704,0.372434018,-0.021568627,0.367773678
17.712,0.365591398,0.003921569,0.365313653
17.72,0.358748778,0.043137255,0.364083641
17.728,0.352883675,0.074509804,0.360393604
17.736,0.347018573,0.11372549,0.357933579
17.744,0.34115347,0.133333333,0.355473555
17.752,0.335288368,0.168627451,0.35301353
17.76,0.331378299,0.174509804,0.351783518
17.768,0.327468231,0.184313725,0.349323493
17.776,0.323558162,0.164705882,0.348093481
17.784,0.318670577,0.154901961,0.346863469
17.792,0.313782991,0.123529412,0.345633456
17.8,0.308895406,0.11372549,0.344403444
17.808,0.304985337,0.088235294,0.343173432
17.816,0.300097752,0.084313725,0.341943419
17.824,0.295210166,0.058823529,0.341943419
17.832,0.291300098,0.052941176,0.340713407
17.84,0.288367546,0.058823529,0.340713407
17.848,0.285434995,0.043137255,0.340713407
17.856,0.282502444,0.058823529,0.340713407
17.864,0.28054741,0.049019608,0.340713407
17.872,0.279569892,0.068627451,0.340713407
17.88,0.279569892,0.068627451,0.339483395
17.888,0.279569892,0.078431373,0.339483395
17.896,0.28054741,0.068627451,0.338253383
17.904,0.282502444,0.084313725,0.33702337
17.912,0.286412512,0.068627451,0.33702337
17.92,0.293255132,0.074509804,0.335793358
17.928,0.30400782,0.052941176,0.334563346
17.936,0.319648094,0.049019608,0.333333333
17.944,0.342130987,0.033333333,0.333333333
17.952,0.370478983,0.043137255,0.330873309
17.96,0.405669599,0.033333333,0.329643296
17.968,0.443792766,0.043137255,0.327183272
17.976,0.479960899,0.023529412,0.324723247
17.984,0.514173998,0.029411765,0.322263223
17.992,0.552297165,0.003921569,0.318573186
18,0.590420332,0.007843137,0.314883149
18.008,0.626588465,-0.001960784,0.312423124
18.016,0.65884653,0.007843137,0.307503075
18.024,0.686217009,-0.001960784,0.303813038
18.032,0.709677419,0.003921569,0.300123001
18.04,0.728250244,0.007843137,0.295202952
18.048,0.742913001,-0.001960784,0.291512915
18.056,0.753665689,0.007843137,0.286592866
18.064,0.760508309,-0.001960784,0.281672817
18.072,0.764418377,0.039215686,0.27798278
18.08,0.764418377,0.133333333,0.273062731
18.088,0.762463343,0.278431373,0.268142681
18.096,0.758553275,0.403921569,0.264452645
18.104,0.752688172,0.21372549,0.259532595
18.112,0.743890518,-0.292156863,0.255842558
18.12,0.734115347,-0.443137255,0.252152522
18.128,0.722385142,-0.292156863,0.248462485
18.136,0.707722385,-0.137254902,0.24600246
18.144,0.693059629,-0.111764706,0.243542435
18.152,0.675464321,-0.096078431,0.242312423
18.16,0.657869013,-0.111764706,0.241082411
18.168,0.639296188,-0.096078431,0.239852399
18.176,0.620723363,-0.111764706,0.241082411
18.184,0.603128055,-0.096078431,0.241082411
18.192,0.586510264,-0.105882353,0.241082411
18.2,0.568914956,-0.096078431,0.241082411
18.208,0.552297165,-0.101960784,0.239852399
18.216,0.534701857,-0.096078431,0.239852399
18.224,0.519061584,-0.101960784,0.238622386
18.232,0.50342131,-0.105882353,0.238622386
18.24,0.488758553,-0.096078431,0.237392374
18.248,0.475073314,-0.111764706,0.237392374
18.256,0.462365591,-0.101960784,0.237392374
18.264,0.451612903,-0.121568627,0.236162362
18.272,0.440860215,-0.096078431,0.236162362
18.28,0.430107527,-0.105882353,0.236162362
18.288,0.42228739,-0.08627451,0.233702337
18.296,0.41544477,-0.07254902,0.232472325
18.304,0.407624633,-0.047058824,0.231242312
18.312,0.400782014,-0.021568627,0.228782288
18.32,0.392961877,0.01372549,0.226322263
18.328,0.386119257,0.039215686,0.225092251
18.336,0.379276637,0.084313725,0.223862239
18.344,0.372434018,0.109803922,0.221402214
18.352,0.364613881,0.139215686,0.220172202
18.36,0.357771261,0.158823529,0.218942189
18.368,0.350928641,0.184313725,0.216482165
18.376,0.345063539,0.168627451,0.215252153
18.384,0.338220919,0.164705882,0.212792128
18.392,0.332355816,0.139215686,0.210332103
18.4,0.327468231,0.123529412,0.209102091
18.408,0.321603128,0.098039216,0.206642066
18.416,0.315738025,0.103921569,0.204182042
18.424,0.309872923,0.068627451,0.201722017
18.432,0.303030303,0.058823529,0.199261993
18.44,0.2971652,0.062745098,0.19803198
18.448,0.290322581,0.049019608,0.194341943
18.456,0.284457478,0.039215686,0.191881919
18.464,0.279569892,0.033333333,0.189421894
18.472,0.274682307,0.052941176,0.185731857
18.48,0.269794721,0.043137255,0.183271833
18.488,0.26686217,0.062745098,0.180811808
18.496,0.264907136,0.058823529,0.179581796
18.504,0.264907136,0.068627451,0.177121771
18.512,0.26686217,0.062745098,0.174661747
18.52,0.270772239,0.078431373,0.173431734
18.528,0.278592375,0.058823529,0.169741697
18.536,0.292277615,0.052941176,0.167281673
18.544,0.311827957,0.039215686,0.164821648
18.552,0.337243402,0.043137255,0.162361624
18.56,0.368523949,0.023529412,0.159901599
18.568,0.405669599,0.033333333,0.157441574
18.576,0.445747801,0.023529412,0.152521525
18.584,0.486803519,0.033333333,0.148831488
18.592,0.528836755,0.023529412,0.143911439
18.6,0.563049853,0.023529412,0.140221402
18.608,0.592375367,-0.001960784,0.135301353
18.616,0.622678397,0.007843137,0.130381304
18.624,0.650048876,-0.005882353,0.125461255
18.632,0.674486804,-0.011764706,0.121771218
18.64,0.695014663,-0.001960784,0.115621156
18.648,0.710654936,-0.001960784,0.110701107
18.656,0.723362659,-0.005882353,0.105781058
18.664,0.732160313,-0.011764706,0.099630996
18.672,0.737047898,-0.015686275,0.094710947
18.68,0.739002933,0.003921569,0.089790898
18.688,0.739002933,0.029411765,0.084870849
18.696,0.735092864,0.133333333,0.0799508
18.704,0.730205279,0.274509804,0.076260763
18.712,0.723362659,0.329411765,0.072570726
18.72,0.714565005,0.033333333,0.068880689
18.728,0.703812317,-0.378431373,0.065190652
18.736,0.691104594,-0.47254902,0.062730627
18.744,0.676441838,-0.347058824,0.061500615
18.752,0.660801564,-0.17254902,0.061500615
18.76,0.644183773,-0.121568627,0.060270603
18.768,0.626588465,-0.117647059,0.061500615
18.776,0.60801564,-0.12745098,0.062730627
18.784,0.589442815,-0.105882353,0.06396064
18.792,0.569892473,-0.117647059,0.065190652
18.8,0.551319648,-0.105882353,0.066420664
18.808,0.534701857,-0.111764706,0.068880689
18.816,0.520039101,-0.096078431,0.070110701
18.824,0.504398827,-0.12745098,0.071340713
18.832,0.488758553,-0.111764706,0.072570726
18.84,0.474095797,-0.121568627,0.073800738
18.848,0.460410557,-0.111764706,0.07503075
18.856,0.446725318,-0.12745098,0.07503075
18.864,0.434017595,-0.121568627,0.076260763
18.872,0.423264907,-0.111764706,0.078720787
18.88,0.412512219,-0.121568627,0.0799508
18.888,0.401759531,-0.117647059,0.082410824
18.896,0.392961877,-0.121568627,0.083640836
18.904,0.384164223,-0.092156863,0.084870849
18.912,0.377321603,-0.066666667,0.086100861
18.92,0.3714565,-0.047058824,0.086100861
18.928,0.364613881,-0.037254902,0.087330873
18.936,0.357771261,0.01372549,0.088560886
18.944,0.350928641,0.039215686,0.089790898
18.952,0.344086022,0.098039216,0.09102091
18.96,0.336265885,0.109803922,0.092250923
18.968,0.329423265,0.143137255,0.094710947
18.976,0.322580645,0.164705882,0.095940959
18.984,0.315738025,0.178431373,0.098400984
18.992,0.309872923,0.168627451,0.100861009
19,0.303030303,0.174509804,0.103321033
19.008,0.293255132,0.129411765,0.105781058
19.016,0.281524927,0.119607843,0.109471095
19.024,0.274682307,0.098039216,0.111931119
19.032,0.269794721,0.088235294,0.114391144
19.04,0.263929619,0.062745098,0.118081181
19.048,0.259042033,0.078431373,0.120541205
19.056,0.254154448,0.049019608,0.124231242
19.064,0.249266862,0.068627451,0.127921279
19.072,0.244379277,0.033333333,0.131611316
19.08,0.240469208,0.023529412,0.135301353
19.088,0.23655914,0.052941176,0.13899139
19.096,0.233626588,0.033333333,0.143911439
19.104,0.231671554,0.068627451,0.147601476
19.112,0.230694037,0.043137255,0.152521525
19.12,0.230694037,0.068627451,0.156211562
19.128,0.232649071,0.074509804,0.159901599
19.136,0.235581623,0.062745098,0.163591636
19.144,0.240469208,0.062745098,0.167281673
19.152,0.248289345,0.068627451,0.17097171
19.16,0.260997067,0.062745098,0.174661747
19.168,0.278592375,0.074509804,0.179581796
19.176,0.301075269,0.033333333,0.183271833
19.184,0.330400782,0.023529412,0.188191882
19.192,0.364613881,0.029411765,0.191881919
19.2,0.401759531,0.023529412,0.196801968
19.208,0.441837732,0.023529412,0.200492005
19.216,0.481915934,0.052941176,0.204182042
19.224,0.520039101,0.01372549,0.207872079
19.232,0.551319648,0.017647059,0.210332103
19.24,0.57771261,0.017647059,0.212792128
19.248,0.604105572,0.023529412,0.215252153
19.256,0.627565982,0.003921569,0.217712177
19.264,0.647116325,0.023529412,0.220172202
19.272,0.663734115,-0.001960784,0.222632226
19.28,0.676441838,0.023529412,0.223862239
19.288,0.685239492,-0.005882353,0.226322263
19.296,0.691104594,0.007843137,0.227552276
19.304,0.693059629,0.023529412,0.228782288
19.312,0.692082111,0.017647059,0.231242312
19.32,0.68914956,0.078431373,0.233702337
19.328,0.683284457,0.2,0.236162362
19.336,0.674486804,0.329411765,0.239852399
19.344,0.664711632,0.354901961,0.243542435
19.352,0.653958944,-0.111764706,0.248462485
19.36,0.641251222,-0.423529412,0.253382534
19.368,0.626588465,-0.456862745,0.259532595
19.376,0.609970674,-0.27254902,0.265682657
19.384,0.593352884,-0.121568627,0.271832718
19.392,0.575757576,-0.117647059,0.27798278
19.4,0.557184751,-0.096078431,0.284132841
19.408,0.538611926,-0.101960784,0.290282903
19.416,0.521016618,-0.092156863,0.296432964
19.424,0.502443793,-0.105882353,0.303813038
19.432,0.485826002,-0.101960784,0.3099631
19.44,0.471163245,-0.105882353,0.316113161
19.448,0.458455523,-0.076470588,0.322263223
19.456,0.444770283,-0.101960784,0.328413284
19.464,0.431085044,-0.117647059,0.333333333
19.472,0.417399804,-0.101960784,0.339483395
19.48,0.405669599,-0.117647059,0.344403444
19.488,0.393939394,-0.076470588,0.349323493
19.496,0.384164223,-0.096078431,0.355473555
19.504,0.374389052,-0.092156863,0.359163592
19.512,0.365591398,-0.105882353,0.364083641
19.52,0.357771261,-0.07254902,0.367773678
19.528,0.349951124,-0.08627451,0.371463715
19.536,0.343108504,-0.060784314,0.376383764
19.544,0.338220919,-0.047058824,0.380073801
19.552,0.333333333,-0.001960784,0.383763838
19.56,0.328445748,0.01372549,0.388683887
19.568,0.323558162,0.068627451,0.392373924
19.576,0.31769306,0.088235294,0.397293973
19.584,0.311827957,0.139215686,0.40098401
19.592,0.306940371,0.154901961,0.405904059
19.6,0.301075269,0.184313725,0.409594096
19.608,0.295210166,0.194117647,0.413284133
19.616,0.290322581,0.209803922,0.415744157
19.624,0.284457478,0.184313725,0.419434194
19.632,0.279569892,0.188235294,0.421894219
19.64,0.27370479,0.154901961,0.424354244
19.648,0.269794721,0.149019608,0.426814268
19.656,0.26686217,0.119607843,0.42804428
19.664,0.262952102,0.103921569,0.430504305
19.672,0.259042033,0.109803922,0.43296433
19.68,0.255131965,0.094117647,0.435424354
19.688,0.251221896,0.088235294,0.437884379
19.696,0.247311828,0.068627451,0.440344403
19.704,0.244379277,0.058823529,0.442804428
19.712,0.242424242,0.052941176,0.44403444
19.72,0.240469208,0.068627451,0.445264453
19.728,0.239491691,0.049019608,0.447724477
19.736,0.238514174,0.068627451,0.44895449
19.744,0.238514174,0.052941176,0.451414514
19.752,0.239491691,0.068627451,0.455104551
19.76,0.242424242,0.043137255,0.457564576
19.768,0.244379277,0.068627451,0.4600246
19.776,0.248289345,0.058823529,0.461254613
19.784,0.252199413,0.068627451,0.463714637
19.792,0.259042033,0.052941176,0.466174662
19.8,0.268817204,0.052941176,0.467404674
19.808,0.281524927,0.039215686,0.468634686
19.816,0.299120235,0.043137255,0.469864699
19.824,0.321603128,0.029411765,0.469864699
19.832,0.348973607,0.039215686,0.469864699
19.84,0.380254154,0.023529412,0.469864699
19.848,0.414467253,0.017647059,0.468634686
19.856,0.445747801,0.023529412,0.468634686
19.864,0.475073314,0.003921569,0.468634686
19.872,0.506353861,-0.001960784,0.468634686
19.88,0.536656891,-0.005882353,0.469864699
19.888,0.565982405,-0.001960784,0.469864699
19.896,0.591397849,-0.011764706,0.469864699
19.904,0.612903226,-0.001960784,0.469864699
19.912,0.630498534,-0.015686275,0.469864699
19.92,0.64516129,-0.001960784,0.469864699
19.928,0.655913978,-0.015686275,0.469864699
19.936,0.662756598,-0.005882353,0.468634686
19.944,0.666666667,0.01372549,0.468634686
19.952,0.666666667,0.129411765,0.468634686
19.96,0.663734115,0.264705882,0.469864699
19.968,0.65884653,0.384313725,0.469864699
19.976,0.65200391,0.123529412,0.471094711
19.984,0.643206256,-0.337254902,0.471094711
19.992,0.631476051,-0.462745098,0.471094711
20,0.617790811,-0.298039216,0.471094711
20.008,0.603128055,-0.166666667,0.471094711
20.016,0.586510264,-0.121568627,0.471094711
20.024,0.567937439,-0.131372549,0.471094711
20.032,0.549364614,-0.117647059,0.471094711
20.04,0.529814272,-0.121568627,0.471094711
20.048,0.511241447,-0.105882353,0.469864699
20.056,0.491691105,-0.117647059,0.469864699
20.064,0.47311828,-0.111764706,0.467404674
20.072,0.457478006,-0.12745098,0.466174662
20.08,0.442815249,-0.117647059,0.464944649
20.088,0.428152493,-0.121568627,0.463714637
20.096,0.412512219,-0.12745098,0.461254613
20.104,0.398826979,-0.121568627,0.458794588
20.112,0.38514174,-0.131372549,0.457564576
20.12,0.372434018,-0.121568627,0.456334563
20.128,0.360703812,-0.137254902,0.453874539
20.136,0.349951124,-0.117647059,0.452644526
20.144,0.34115347,-0.121568627,0.450184502
20.152,0.332355816,-0.101960784,0.447724477
20.16,0.324535679,-0.105882353,0.445264453
20.168,0.316715543,-0.076470588,0.441574416
20.176,0.311827957,-0.066666667,0.439114391
20.184,0.307917889,-0.02745098,0.435424354
20.192,0.303030303,-0.001960784,0.43296433
20.2,0.298142717,0.039215686,0.429274293
20.208,0.294232649,0.068627451,0.425584256
20.216,0.290322581,0.11372549,0.421894219
20.224,0.286412512,0.133333333,0.418204182
20.232,0.283479961,0.168627451,0.414514145
20.24,0.28054741,0.174509804,0.410824108
20.248,0.277614858,0.178431373,0.408364084
20.256,0.274682307,0.158823529,0.404674047
20.264,0.272727273,0.154901961,0.402214022
20.272,0.270772239,0.123529412,0.399753998
20.28,0.270772239,0.109803922,0.397293973
20.288,0.270772239,0.088235294,0.394833948
20.296,0.270772239,0.078431373,0.392373924
20.304,0.271749756,0.062745098,0.389913899
20.312,0.271749756,0.049019608,0.388683887
20.32,0.271749756,0.058823529,0.387453875
20.328,0.272727273,0.039215686,0.387453875
20.336,0.27370479,0.049019608,0.386223862
20.344,0.274682307,0.043137255,0.386223862
20.352,0.275659824,0.058823529,0.38499385
20.36,0.276637341,0.052941176,0.38499385
20.368,0.278592375,0.068627451,0.383763838
20.376,0.28054741,0.058823529,0.382533825
20.384,0.282502444,0.068627451,0.381303813
20.392,0.285434995,0.058823529,0.378843788
20.4,0.289345064,0.062745098,0.377613776
20.408,0.295210166,0.039215686,0.375153752
20.416,0.303030303,0.033333333,0.373923739
20.424,0.314760508,0.01372549,0.371463715
20.432,0.330400782,0.023529412,0.36900369
20.44,0.352883675,0.007843137,0.366543665
20.448,0.381231672,0.017647059,0.364083641
20.456,0.414467253,0.003921569,0.361623616
20.464,0.45259042,0.007843137,0.359163592
20.472,0.492668622,-0.005882353,0.355473555
20.48,0.53372434,-0.011764706,0.351783518
20.488,0.568914956,-0.001960784,0.349323493
20.496,0.599217986,-0.015686275,0.344403444
20.504,0.630498534,-0.011764706,0.340713407
20.512,0.65884653,-0.021568627,0.33702337
20.52,0.685239492,-0.001960784,0.332103321
20.528,0.706744868,-0.011764706,0.327183272
20.536,0.723362659,-0.001960784,0.323493235
20.544,0.737047898,-0.005882353,0.318573186
20.552,0.746823069,0.017647059,0.313653137
20.56,0.751710655,0.078431373,0.308733087
20.568,0.754643206,0.223529412,0.303813038
20.576,0.753665689,0.358823529,0.298892989
20.584,0.749755621,0.403921569,0.29397294
20.592,0.742913001,-0.141176471,0.290282903
20.6,0.735092864,-0.443137255,0.285362854
20.608,0.724340176,-0.378431373,0.281672817
20.616,0.712609971,-0.182352941,0.27798278
20.624,0.697947214,-0.12745098,0.275522755
20.632,0.68230694,-0.111764706,0.273062731
20.64,0.66568915,-0.121568627,0.271832718
20.648,0.648093842,-0.117647059,0.270602706
20.656,0.629521017,-0.121568627,0.269372694
20.664,0.609970674,-0.105882353,0.268142681
20.672,0.591397849,-0.117647059,0.266912669
20.68,0.572825024,-0.105882353,0.265682657
20.688,0.555229717,-0.117647059,0.265682657
20.696,0.539589443,-0.111764706,0.264452645
20.704,0.524926686,-0.105882353,0.264452645
20.712,0.51026393,-0.121568627,0.264452645
20.72,0.495601173,-0.111764706,0.264452645
20.728,0.481915934,-0.121568627,0.264452645
20.736,0.468230694,-0.111764706,0.264452645
20.744,0.456500489,-0.121568627,0.265682657
20.752,0.444770283,-0.105882353,0.265682657
20.76,0.434017595,-0.111764706,0.266912669
20.768,0.424242424,-0.092156863,0.268142681
20.776,0.41544477,-0.082352941,0.269372694
20.784,0.406647116,-0.056862745,0.269372694
20.792,0.397849462,-0.041176471,0.268142681
20.8,0.39198436,0.003921569,0.266912669
20.808,0.386119257,0.023529412,0.265682657
20.816,0.379276637,0.062745098,0.264452645
20.824,0.372434018,0.088235294,0.26199262
20.832,0.365591398,0.133333333,0.260762608
20.84,0.358748778,0.143137255,0.259532595
20.848,0.351906158,0.168627451,0.258302583
20.856,0.346041056,0.164705882,0.257072571
20.864,0.339198436,0.164705882,0.257072571
20.872,0.332355816,0.133333333,0.257072571
20.88,0.325513196,0.129411765,0.257072571
20.888,0.318670577,0.109803922,0.257072571
20.896,0.311827957,0.094117647,0.255842558
20.904,0.306940371,0.068627451,0.255842558
20.912,0.302052786,0.058823529,0.255842558
20.92,0.2971652,0.049019608,0.255842558
20.928,0.291300098,0.043137255,0.255842558
20.936,0.285434995,0.049019608,0.255842558
20.944,0.279569892,0.033333333,0.254612546
20.952,0.274682307,0.049019608,0.253382534
20.96,0.269794721,0.043137255,0.252152522
20.968,0.265884653,0.062745098,0.252152522
20.976,0.262952102,0.058823529,0.249692497
20.984,0.261974585,0.068627451,0.248462485
20.992,0.262952102,0.058823529,0.247232472
21,0.265884653,0.074509804,0.244772448
21.008,0.271749756,0.058823529,0.242312423
21.016,0.281524927,0.062745098,0.239852399
21.024,0.2971652,0.033333333,0.236162362
21.032,0.318670577,0.039215686,0.233702337
21.04,0.346041056,0.023529412,0.2300123
21.048,0.380254154,0.029411765,0.226322263
21.056,0.420332356,0.017647059,0.222632226
21.064,0.463343109,0.029411765,0.218942189
21.072,0.504398827,0.01372549,0.21402214
21.08,0.544477028,0.01372549,0.209102091
21.088,0.581622678,-0.005882353,0.204182042
21.096,0.61485826,0.003921569,0.19803198
21.104,0.643206256,0.007843137,0.193111931
21.112,0.667644184,-0.011764706,0.188191882
21.12,0.685239492,0.007843137,0.183271833
21.128,0.696969697,-0.005882353,0.178351784
21.136,0.708699902,0.003921569,0.173431734
21.144,0.717497556,-0.015686275,0.168511685
21.152,0.723362659,-0.001960784,0.162361624
21.16,0.727272727,-0.011764706,0.157441574
21.168,0.728250244,0.033333333,0.151291513
21.176,0.72629521,0.119607843,0.145141451
21.184,0.722385142,0.258823529,0.140221402
21.192,0.716520039,0.354901961,0.134071341
21.2,0.708699902,0.139215686,0.129151292
21.208,0.698924731,-0.337254902,0.125461255
21.216,0.687194526,-0.482352941,0.121771218
21.224,0.675464321,-0.362745098,0.118081181
21.232,0.661779081,-0.182352941,0.115621156
21.24,0.647116325,-0.121568627,0.113161132
21.248,0.631476051,-0.111764706,0.110701107
21.256,0.61485826,-0.121568627,0.109471095
21.264,0.597262952,-0.096078431,0.108241082
21.272,0.579667644,-0.111764706,0.108241082
21.28,0.562072336,-0.117647059,0.10701107
21.288,0.544477028,-0.121568627,0.10701107
21.296,0.527859238,-0.111764706,0.105781058
21.304,0.512218964,-0.121568627,0.105781058
21.312,0.49657869,-0.12745098,0.104551046
21.32,0.482893451,-0.121568627,0.104551046
21.328,0.470185728,-0.12745098,0.104551046
21.336,0.45943304,-0.111764706,0.104551046
21.344,0.448680352,-0.117647059,0.104551046
21.352,0.437927664,-0.111764706,0.104551046
21.36,0.428152493,-0.117647059,0.104551046
21.368,0.418377322,-0.121568627,0.104551046
21.376,0.409579668,-0.117647059,0.103321033
21.384,0.400782014,-0.092156863,0.103321033
21.392,0.392961877,-0.092156863,0.103321033
21.4,0.38514174,-0.050980392,0.102091021
21.408,0.37829912,-0.037254902,0.102091021
21.416,0.370478983,0.01372549,0.100861009
21.424,0.363636364,0.007843137,0.100861009
21.432,0.357771261,0.068627451,0.100861009
21.44,0.352883675,0.103921569,0.100861009
21.448,0.347018573,0.133333333,0.102091021
21.456,0.340175953,0.158823529,0.102091021
21.464,0.33431085,0.178431373,0.103321033
21.472,0.327468231,0.168627451,0.105781058
21.48,0.320625611,0.164705882,0.10701107
21.488,0.313782991,0.143137255,0.108241082
21.496,0.307917889,0.109803922,0.109471095
21.504,0.301075269,0.088235294,0.109471095
21.512,0.294232649,0.094117647,0.110701107
21.52,0.288367546,0.078431373,0.110701107
21.528,0.282502444,0.068627451,0.111931119
21.536,0.277614858,0.062745098,0.114391144
21.544,0.274682307,0.043137255,0.115621156
21.552,0.269794721,0.043137255,0.118081181
21.56,0.265884653,0.033333333,0.120541205
21.568,0.261974585,0.052941176,0.124231242
21.576,0.258064516,0.049019608,0.127921279
21.584,0.255131965,0.084313725,0.130381304
21.592,0.254154448,0.052941176,0.134071341
21.6,0.253176931,0.068627451,0.136531365
21.608,0.254154448,0.062745098,0.140221402
21.616,0.256109482,0.088235294,0.142681427
21.624,0.261974585,0.078431373,0.146371464
21.632,0.271749756,0.094117647,0.148831488
21.64,0.284457478,0.052941176,0.151291513
21.648,0.301075269,0.068627451,0.153751538
21.656,0.323558162,0.033333333,0.156211562
21.664,0.351906158,0.029411765,0.157441574
21.672,0.38514174,0.043137255,0.159901599
21.68,0.421309873,0.029411765,0.161131611
21.688,0.460410557,0.039215686,0.161131611
21.696,0.498533724,0.029411765,0.162361624
21.704,0.535679374,0.033333333,0.162361624
21.712,0.569892473,0.017647059,0.162361624
21.72,0.600195503,0.033333333,0.163591636
21.728,0.626588465,0.017647059,0.164821648
21.736,0.648093842,-0.001960784,0.166051661
21.744,0.663734115,-0.005882353,0.167281673
21.752,0.674486804,0.017647059,0.168511685
21.76,0.683284457,0.01372549,0.168511685
21.768,0.690127077,0.029411765,0.169741697
21.776,0.695014663,-0.011764706,0.17097171
21.784,0.69599218,0.003921569,0.17097171
21.792,0.695014663,0.029411765,0.172201722
21.8,0.692082111,0.103921569,0.172201722
21.808,0.687194526,0.209803922,0.174661747
21.816,0.679374389,0.329411765,0.177121771
21.824,0.669599218,0.345098039,0.179581796
21.832,0.657869013,-0.166666667,0.183271833
21.84,0.644183773,-0.452941176,0.18696187
21.848,0.630498534,-0.468627451,0.191881919
21.856,0.617790811,-0.237254902,0.196801968
21.864,0.602150538,-0.105882353,0.201722017
21.872,0.586510264,-0.101960784,0.207872079
21.88,0.569892473,-0.121568627,0.21402214
21.888,0.552297165,-0.096078431,0.220172202
21.896,0.535679374,-0.08627451,0.227552276
21.904,0.519061584,-0.076470588,0.232472325
21.912,0.502443793,-0.096078431,0.238622386
21.92,0.486803519,-0.096078431,0.243542435
21.928,0.472140762,-0.092156863,0.249692497
21.936,0.457478006,-0.076470588,0.254612546
21.944,0.444770283,-0.096078431,0.259532595
21.952,0.434017595,-0.07254902,0.265682657
21.96,0.424242424,-0.096078431,0.271832718
21.968,0.41544477,-0.101960784,0.279212792
21.976,0.405669599,-0.096078431,0.285362854
21.984,0.396871945,-0.096078431,0.292742927
21.992,0.389051808,-0.101960784,0.300123001
22,0.381231672,-0.082352941,0.306273063
22.008,0.374389052,-0.092156863,0.312423124
22.016,0.366568915,-0.037254902,0.317343173
22.024,0.360703812,-0.050980392,0.323493235
22.032,0.35483871,-0.005882353,0.328413284
22.04,0.348973607,0.023529412,0.334563346
22.048,0.343108504,0.074509804,0.339483395
22.056,0.337243402,0.088235294,0.345633456
22.064,0.333333333,0.129411765,0.350553506
22.072,0.329423265,0.149019608,0.355473555
22.08,0.324535679,0.178431373,0.360393604
22.088,0.319648094,0.219607843,0.365313653
22.096,0.314760508,0.2,0.36900369
22.104,0.308895406,0.184313725,0.373923739
22.112,0.303030303,0.164705882,0.377613776
22.12,0.298142717,0.164705882,0.382533825
22.128,0.292277615,0.139215686,0.386223862
22.136,0.287390029,0.109803922,0.389913899
22.144,0.282502444,0.084313725,0.393603936
22.152,0.277614858,0.078431373,0.397293973
22.16,0.27370479,0.074509804,0.40098401
22.168,0.270772239,0.088235294,0.404674047
22.176,0.268817204,0.068627451,0.409594096
22.184,0.265884653,0.062745098,0.414514145
22.192,0.262952102,0.068627451,0.419434194
22.2,0.26001955,0.078431373,0.424354244
22.208,0.258064516,0.068627451,0.42804428
22.216,0.256109482,0.084313725,0.43296433
22.224,0.255131965,0.078431373,0.437884379
22.232,0.255131965,0.094117647,0.442804428
22.24,0.256109482,0.078431373,0.446494465
22.248,0.258064516,0.094117647,0.451414514
22.256,0.261974585,0.084313725,0.455104551
22.264,0.268817204,0.094117647,0.458794588
22.272,0.276637341,0.088235294,0.462484625
22.28,0.287390029,0.094117647,0.466174662
22.288,0.303030303,0.058823529,0.468634686
22.296,0.323558162,0.062745098,0.471094711
22.304,0.348973607,0.049019608,0.472324723
22.312,0.379276637,0.058823529,0.474784748
22.32,0.412512219,0.043137255,0.474784748
22.328,0.447702835,0.049019608,0.47601476
22.336,0.483870968,0.039215686,0.474784748
22.344,0.517106549,0.033333333,0.474784748
22.352,0.549364614,0.023529412,0.473554736
22.36,0.57771261,0.023529412,0.472324723
22.368,0.602150538,0.017647059,0.469864699
22.376,0.620723363,0.007843137,0.467404674
22.384,0.635386119,0.017647059,0.464944649
22.392,0.648093842,0.007843137,0.462484625
22.4,0.65884653,0.017647059,0.4600246
22.408,0.666666667,0.007843137,0.457564576
22.416,0.670576735,0.023529412,0.455104551
22.424,0.672531769,0.017647059,0.452644526
22.432,0.671554252,0.078431373,0.451414514
22.44,0.667644184,0.2,0.44895449
22.448,0.661779081,0.349019608,0.447724477
22.456,0.652981427,0.384313725,0.446494465
22.464,0.643206256,-0.105882353,0.445264453
22.472,0.630498534,-0.443137255,0.44403444
22.48,0.618768328,-0.468627451,0.44403444
22.488,0.606060606,-0.243137255,0.44403444
22.496,0.591397849,-0.131372549,0.445264453
22.504,0.575757576,-0.117647059,0.446494465
22.512,0.560117302,-0.121568627,0.447724477
22.52,0.543499511,-0.12745098,0.450184502
22.528,0.52688172,-0.117647059,0.452644526
22.536,0.51026393,-0.111764706,0.455104551
22.544,0.494623656,-0.121568627,0.457564576
22.552,0.479960899,-0.105882353,0.461254613
22.56,0.465298143,-0.121568627,0.463714637
22.568,0.451612903,-0.105882353,0.467404674
22.576,0.438905181,-0.121568627,0.468634686
22.584,0.42913001,-0.101960784,0.471094711
22.592,0.419354839,-0.121568627,0.473554736
22.6,0.409579668,-0.111764706,0.474784748
22.608,0.400782014,-0.121568627,0.47601476
22.616,0.39198436,-0.111764706,0.477244772
22.624,0.383186706,-0.117647059,0.477244772
22.632,0.375366569,-0.096078431,0.478474785
22.64,0.367546432,-0.105882353,0.477244772
22.648,0.360703812,-0.076470588,0.477244772
